#  Species 2: 154 CH3{13}CN
#  1e+16 200.0 5.0 0.0 0.7   
# N(cm^-2) T(K) dv(km/s) vlsr(km/s) size(") 
238850.0  0.003719653925141869
238850.1  0.004387330474791062
238850.2  0.005156797919773665
238850.30000000002  0.006040067121582532
238850.40000000002  0.007049937020270847
238850.50000000003  0.008199935936962693
238850.60000000003  0.009504239176324647
238850.70000000004  0.010977560835763761
238850.80000000005  0.012635018064028447
238850.90000000005  0.014491966455614458
238851.00000000006  0.01656380582173858
238851.10000000006  0.0188657562415796
238851.20000000007  0.021412605064001333
238851.30000000008  0.024218426388572356
238851.40000000008  0.027296275490686972
238851.5000000001  0.030657861647469836
238851.6000000001  0.03431320384350062
238851.7000000001  0.03827027485757567
238851.8000000001  0.04253464021933995
238851.9000000001  0.047109099440063196
238852.00000000012  0.0519933377256471
238852.10000000012  0.0571835970322746
238852.20000000013  0.06267237578675353
238852.30000000013  0.06844816682912314
238852.40000000014  0.0744952431124847
238852.50000000015  0.0807935003899394
238852.60000000015  0.08731836551377403
238852.70000000016  0.0940407780603554
238852.80000000016  0.10092725177949655
238852.90000000017  0.10794002086340004
238853.00000000017  0.11503727426507884
238853.10000000018  0.12217347930742961
238853.2000000002  0.12929979366045932
238853.3000000002  0.13636456248511883
238853.4000000002  0.14331389521328017
238853.5000000002  0.15009231412724275
238853.6000000002  0.15664346469374657
238853.70000000022  0.16291087557187917
238853.80000000022  0.16883875442470006
238853.90000000023  0.17437280418739473
238854.00000000023  0.17946104333943
238854.10000000024  0.18405461304242837
238854.20000000024  0.18810855377390842
238854.30000000025  0.19158253433039563
238854.40000000026  0.1944415167962521
238854.50000000026  0.19665634226542197
238854.60000000027  0.19820422373481436
238854.70000000027  0.19906913461797407
238854.80000000028  0.19924208369900936
238854.90000000029  0.1987212699920967
238855.0000000003  0.19751211381242914
238855.1000000003  0.19562716331632887
238855.2000000003  0.19308587874222824
238855.3000000003  0.1899142994911502
238855.4000000003  0.18614460193822474
238855.50000000032  0.18181455838368893
238855.60000000033  0.17696690975987472
238855.70000000033  0.171648666546742
238855.80000000034  0.16591035376351965
238855.90000000034  0.1598052168623696
238856.00000000035  0.15338840583260577
238856.10000000036  0.14671615482775172
238856.20000000036  0.13984497416438132
238856.30000000037  0.13283087064062118
238856.40000000037  0.1257286108232081
238856.50000000038  0.11859104031064888
238856.60000000038  0.11146847005788155
238856.7000000004  0.10440813871645138
238856.8000000004  0.09745375767711253
238856.9000000004  0.09064514317509464
238857.0000000004  0.08401793750553249
238857.1000000004  0.07760341916758662
238857.20000000042  0.07142839967314824
238857.30000000042  0.0655152028739345
238857.40000000043  0.05988172102266609
238857.50000000044  0.054541540422952006
238857.60000000044  0.04950412845846436
238857.70000000045  0.04477507303477976
238857.80000000045  0.04035636501426018
238857.90000000046  0.0362467140637949
238858.00000000047  0.03244188844553922
238858.10000000047  0.028935069634102834
238858.20000000048  0.025717213205643297
238858.30000000048  0.0227774081776832
238858.4000000005  0.020103227843168092
238858.5000000005  0.017681066098887616
238858.6000000005  0.015496454277860477
238858.7000000005  0.013534354521519243
238858.8000000005  0.011779426738325549
238858.90000000052  0.0102162671619756
238859.00000000052  0.008829617421947017
238859.10000000053  0.007604543853106799
238859.20000000054  0.006526587486687996
238859.30000000054  0.00558188577380031
238859.40000000055  0.004757267591398523
238859.50000000055  0.0040403234699031565
238859.60000000056  0.003419453265113115
238859.70000000056  0.0028838936821400096
238859.80000000057  0.002423728154426902
238859.90000000058  0.0020298815973578688
238860.00000000058  0.0016941025051849523
238860.1000000006  0.0014089347536154762
238860.2000000006  0.0011676813205972192
238860.3000000006  0.0009643619558485361
238860.4000000006  0.0007936666258714642
238860.5000000006  0.0006509063452732888
238860.60000000062  0.0005319627852702902
238860.70000000062  0.00043323783340706856
238860.80000000063  0.0003516040700882461
238860.90000000063  0.00028435693255687844
238861.00000000064  0.00022916915767351442
238861.10000000065  0.00018404793429949162
238861.20000000065  0.00014729505483637717
238861.30000000066  0.00011747023379249377
238861.40000000066  9.335765917026229e-05
238861.50000000067  7.39357586981848e-05
238861.60000000068  5.8350096363180004e-05
238861.70000000068  4.588926365614587e-05
238861.8000000007  3.5963592744880923e-05
238861.9000000007  2.808649374555494e-05
238862.0000000007  2.185820308786557e-05
238862.1000000007  1.695172366777964e-05
238862.2000000007  1.3100737664806239e-05
238862.30000000072  1.0089278625724507e-05
238862.40000000072  7.742959030859753e-06
238862.50000000073  5.921562104549416e-06
238862.60000000073  4.512820890284486e-06
238862.70000000074  3.427223194241158e-06
238862.80000000075  2.5936965346307073e-06
238862.90000000075  1.95604309377595e-06
238863.00000000076  1.4700095551101189e-06
238863.10000000076  1.100891153543726e-06
238863.20000000077  8.215823256163546e-07
238863.30000000077  6.10998694028364e-07
238863.40000000078  4.528057716279843e-07
238863.5000000008  3.343998765670264e-07
238863.6000000008  2.4609497578653716e-07
238863.7000000008  1.8047700661716348e-07
238863.8000000008  1.3189352821019185e-07
238863.9000000008  9.605225587128174e-08
238864.00000000081  6.970663954386502e-08
238864.10000000082  5.041075709644183e-08
238864.20000000083  3.632911207973599e-08
238864.30000000083  2.6089681720575797e-08
238864.40000000084  1.8670900131523283e-08
238864.50000000084  1.3315096997201792e-08
238864.60000000085  9.462496147749633e-09
238864.70000000086  6.701157684307901e-09
238864.80000000086  4.729075242515535e-09
238864.90000000087  3.325713676671782e-09
238865.00000000087  2.3306480634310844e-09
238865.10000000088  1.6276111569624163e-09
238865.20000000088  1.132678395521225e-09
238865.3000000009  7.854999151124531e-10
238865.4000000009  5.42833888950156e-10
238865.5000000009  3.738287457366596e-10
238865.6000000009  2.565390400111056e-10
238865.7000000009  1.7544007913095072e-10
238865.80000000092  1.1955908485461464e-10
238865.90000000093  8.119122041350124e-11
238866.00000000093  5.494676935668963e-11
238866.10000000094  3.705158402311781e-11
238866.20000000094  2.490052608550286e-11
238866.30000000095  1.6675522074294236e-11
238866.40000000095  1.1129291932476804e-11
238866.50000000096  7.401135260209912e-12
238866.60000000097  4.901856698324991e-12
238866.70000000097  3.240296919670982e-12
238866.80000000098  2.1310453401923724e-12
238866.90000000098  1.3992140779350848e-12
238867.000000001  9.113265697635597e-13
238867.100000001  5.937472735695337e-13
238867.200000001  3.8663516832571077e-13
238867.300000001  2.485511796379569e-13
238867.400000001  1.6109336087311021e-13
238867.50000000102  1.0125233984581428e-13
238867.60000000102  6.444844657949034e-14
238867.70000000103  4.141131881851834e-14
238867.80000000104  2.761679773755077e-14
238867.90000000104  1.840194663316197e-14
238868.00000000105  9.2148511043888e-15
238868.10000000105  4.6074255521944e-15
238868.20000000106  4.6074255521944e-15
238868.30000000107  4.6074255521944e-15
238868.40000000107  0.0
238868.50000000108  0.0
238868.60000000108  0.0
238868.7000000011  0.0
238868.8000000011  0.0
238868.9000000011  0.0
238869.0000000011  0.0
238869.1000000011  0.0
238869.20000000112  0.0
238869.30000000112  0.0
238869.40000000113  0.0
238869.50000000114  0.0
238869.60000000114  0.0
238869.70000000115  0.0
238869.80000000115  0.0
238869.90000000116  0.0
238870.00000000116  0.0
238870.10000000117  0.0
238870.20000000118  0.0
238870.30000000118  0.0
238870.4000000012  0.0
238870.5000000012  0.0
238870.6000000012  0.0
238870.7000000012  0.0
238870.8000000012  0.0
238870.90000000122  0.0
238871.00000000122  0.0
238871.10000000123  0.0
238871.20000000123  0.0
238871.30000000124  0.0
238871.40000000125  0.0
238871.50000000125  0.0
238871.60000000126  0.0
238871.70000000126  0.0
238871.80000000127  0.0
238871.90000000127  0.0
238872.00000000128  0.0
238872.1000000013  0.0
238872.2000000013  0.0
238872.3000000013  0.0
238872.4000000013  0.0
238872.5000000013  0.0
238872.60000000132  0.0
238872.70000000132  0.0
238872.80000000133  0.0
238872.90000000133  0.0
238873.00000000134  0.0
238873.10000000134  0.0
238873.20000000135  0.0
238873.30000000136  0.0
238873.40000000136  0.0
238873.50000000137  0.0
238873.60000000137  0.0
238873.70000000138  0.0
238873.80000000139  0.0
238873.9000000014  0.0
238874.0000000014  0.0
238874.1000000014  0.0
238874.2000000014  0.0
238874.3000000014  0.0
238874.40000000142  0.0
238874.50000000143  0.0
238874.60000000143  0.0
238874.70000000144  0.0
238874.80000000144  0.0
238874.90000000145  0.0
238875.00000000146  0.0
238875.10000000146  0.0
238875.20000000147  0.0
238875.30000000147  0.0
238875.40000000148  0.0
238875.50000000148  0.0
238875.6000000015  0.0
238875.7000000015  0.0
238875.8000000015  0.0
238875.9000000015  0.0
238876.0000000015  0.0
238876.10000000152  0.0
238876.20000000153  0.0
238876.30000000153  0.0
238876.40000000154  0.0
238876.50000000154  0.0
238876.60000000155  0.0
238876.70000000155  0.0
238876.80000000156  0.0
238876.90000000157  0.0
238877.00000000157  0.0
238877.10000000158  0.0
238877.20000000158  0.0
238877.3000000016  0.0
238877.4000000016  0.0
238877.5000000016  0.0
238877.6000000016  0.0
238877.7000000016  0.0
238877.80000000162  0.0
238877.90000000162  0.0
238878.00000000163  0.0
238878.10000000164  0.0
238878.20000000164  0.0
238878.30000000165  0.0
238878.40000000165  0.0
238878.50000000166  0.0
238878.60000000166  0.0
238878.70000000167  0.0
238878.80000000168  0.0
238878.90000000168  0.0
238879.0000000017  0.0
238879.1000000017  0.0
238879.2000000017  0.0
238879.3000000017  0.0
238879.4000000017  0.0
238879.50000000172  0.0
238879.60000000172  0.0
238879.70000000173  0.0
238879.80000000173  0.0
238879.90000000174  0.0
238880.00000000175  0.0
238880.10000000175  0.0
238880.20000000176  0.0
238880.30000000176  0.0
238880.40000000177  0.0
238880.50000000178  0.0
238880.60000000178  0.0
238880.7000000018  0.0
238880.8000000018  0.0
238880.9000000018  0.0
238881.0000000018  0.0
238881.1000000018  0.0
238881.20000000182  0.0
238881.30000000182  0.0
238881.40000000183  0.0
238881.50000000183  0.0
238881.60000000184  0.0
238881.70000000185  0.0
238881.80000000185  0.0
238881.90000000186  0.0
238882.00000000186  0.0
238882.10000000187  0.0
238882.20000000187  0.0
238882.30000000188  0.0
238882.4000000019  0.0
238882.5000000019  0.0
238882.6000000019  0.0
238882.7000000019  0.0
238882.8000000019  0.0
238882.90000000192  0.0
238883.00000000192  0.0
238883.10000000193  0.0
238883.20000000193  0.0
238883.30000000194  0.0
238883.40000000194  0.0
238883.50000000195  0.0
238883.60000000196  0.0
238883.70000000196  0.0
238883.80000000197  0.0
238883.90000000197  0.0
238884.00000000198  0.0
238884.10000000198  0.0
238884.200000002  0.0
238884.300000002  0.0
238884.400000002  0.0
238884.500000002  0.0
238884.600000002  0.0
238884.70000000202  0.0
238884.80000000203  0.0
238884.90000000203  0.0
238885.00000000204  0.0
238885.10000000204  0.0
238885.20000000205  0.0
238885.30000000205  0.0
238885.40000000206  0.0
238885.50000000207  0.0
238885.60000000207  0.0
238885.70000000208  0.0
238885.80000000208  0.0
238885.9000000021  0.0
238886.0000000021  0.0
238886.1000000021  0.0
238886.2000000021  0.0
238886.3000000021  0.0
238886.40000000212  0.0
238886.50000000212  0.0
238886.60000000213  0.0
238886.70000000214  0.0
238886.80000000214  0.0
238886.90000000215  0.0
238887.00000000215  0.0
238887.10000000216  0.0
238887.20000000217  0.0
238887.30000000217  0.0
238887.40000000218  0.0
238887.50000000218  0.0
238887.6000000022  0.0
238887.7000000022  0.0
238887.8000000022  0.0
238887.9000000022  0.0
238888.0000000022  0.0
238888.10000000222  0.0
238888.20000000222  0.0
238888.30000000223  0.0
238888.40000000224  0.0
238888.50000000224  0.0
238888.60000000225  0.0
238888.70000000225  0.0
238888.80000000226  0.0
238888.90000000226  0.0
238889.00000000227  0.0
238889.10000000228  0.0
238889.20000000228  0.0
238889.3000000023  0.0
238889.4000000023  0.0
238889.5000000023  0.0
238889.6000000023  0.0
238889.7000000023  0.0
238889.80000000232  0.0
238889.90000000232  0.0
238890.00000000233  0.0
238890.10000000233  0.0
238890.20000000234  0.0
238890.30000000235  0.0
238890.40000000235  0.0
238890.50000000236  0.0
238890.60000000236  0.0
238890.70000000237  0.0
238890.80000000237  0.0
238890.90000000238  0.0
238891.0000000024  0.0
238891.1000000024  0.0
238891.2000000024  0.0
238891.3000000024  0.0
238891.4000000024  0.0
238891.50000000242  0.0
238891.60000000242  4.6074255521944e-15
238891.70000000243  4.6074255521944e-15
238891.80000000243  4.6074255521944e-15
238891.90000000244  9.2148511043888e-15
238892.00000000244  1.3822276656583199e-14
238892.10000000245  2.300937218535637e-14
238892.20000000246  3.683164884193957e-14
238892.30000000246  5.984102102729594e-14
238892.40000000247  9.20652443170411e-14
238892.50000000247  1.4269141423994824e-13
238892.60000000248  2.2556956302821618e-13
238892.7000000025  3.4525160508280806e-13
238892.8000000025  5.33961763693469e-13
238892.9000000025  8.193723477489812e-13
238893.0000000025  1.252081771596636e-12
238893.1000000025  1.9057533329203125e-12
238893.20000000251  2.8954338926467926e-12
238893.30000000252  4.382272322800418e-12
238893.40000000253  6.605660463065988e-12
238893.50000000253  9.919981502903852e-12
238893.60000000254  1.4850065621629938e-11
238893.70000000254  2.215544414596593e-11
238893.80000000255  3.293626482658851e-11
238893.90000000256  4.8794468465729324e-11
238894.00000000256  7.202713425691343e-11
238894.10000000257  1.0595777033550746e-10
238894.20000000257  1.5533235808717905e-10
238894.30000000258  2.2691312717704193e-10
238894.40000000258  3.303301521206947e-10
238894.5000000026  4.791998742259551e-10
238894.6000000026  6.927364515352252e-10
238894.7000000026  9.979380932723103e-10
238894.8000000026  1.4325932107261963e-09
238894.9000000026  2.0493864383297478e-09
238895.00000000262  2.921514669074199e-09
238895.10000000263  4.150264160118766e-09
238895.20000000263  5.875248287878776e-09
238895.30000000264  8.288198960482163e-09
238895.40000000264  1.1651370757093105e-08
238895.50000000265  1.6322136447977087e-08
238895.60000000265  2.2785587583395994e-08
238895.70000000266  3.1697607927316795e-08
238895.80000000267  4.394160463272456e-08
238895.90000000267  6.07027599575094e-08
238896.00000000268  8.356494057837338e-08
238896.10000000268  1.1463649268739218e-07
238896.2000000027  1.5671291928032183e-07
238896.3000000027  2.1348620757311032e-07
238896.4000000027  2.898130747330807e-07
238896.5000000027  3.920570283977298e-07
238896.6000000027  5.285226968021473e-07
238896.70000000272  7.100045935348742e-07
238896.80000000272  9.504774129975857e-07
238896.90000000273  1.2679600381038103e-06
238897.00000000274  1.6855919703351319e-06
238897.10000000274  2.232967815651854e-06
238897.20000000275  2.9477835797320218e-06
238897.30000000275  3.877857535583562e-06
238897.40000000276  5.083598304644887e-06
238897.50000000276  6.641003722163141e-06
238897.60000000277  8.645285537650649e-06
238897.70000000278  1.121522731126201e-05
238897.80000000278  1.4498395361023375e-05
238897.9000000028  1.8677335279437823e-05
238898.0000000028  2.3976898719524353e-05
238898.1000000028  3.067285619390292e-05
238898.2000000028  3.9101961371718064e-05
238898.3000000028  4.9673639162806094e-05
238898.40000000282  6.288347357544244e-05
238898.50000000282  7.932867032189872e-05
238898.60000000283  9.972566220492474e-05
238898.70000000283  0.00012493001174315732
238898.80000000284  0.000155958742745127
238898.90000000285  0.0001940152003405693
238899.00000000285  0.00024051649514539308
238899.10000000286  0.00029712353055599827
238899.20000000286  0.00036577354157507624
238899.30000000287  0.0004487149880462171
238899.40000000288  0.0005485445438852266
238899.50000000288  0.0006682458069466879
238899.6000000029  0.0008112292218581674
238899.7000000029  0.0009813725613825597
238899.8000000029  0.0011830611529126678
238899.9000000029  0.0014212268678609752
238900.0000000029  0.001701384717181148
238900.10000000292  0.0020296657204131874
238900.20000000292  0.0024128445447346714
238900.30000000293  0.0028583602509094364
238900.40000000293  0.003374328343039662
238900.50000000294  0.003969542206706617
238900.60000000295  0.00465346194517316
238900.70000000295  0.005436188594748981
238900.80000000296  0.006328421728249878
238900.90000000296  0.007341398548357331
238901.00000000297  0.008486812739173788
238901.10000000297  0.009776711591000992
238901.20000000298  0.011223370245447534
238901.300000003  0.01283914232815761
238901.400000003  0.014636286744040633
238901.500000003  0.01662677100160692
238901.600000003  0.018822052101247266
238901.700000003  0.02123283675576909
238901.80000000302  0.023868823494668623
238901.90000000302  0.026738430016876064
238902.00000000303  0.029848509977104365
238902.10000000303  0.03320406419100019
238902.20000000304  0.03680795199582232
238902.30000000304  0.040660609173821416
238902.40000000305  0.044759779404347305
238902.50000000306  0.04910026662547612
238902.60000000306  0.053673715927793464
238902.70000000307  0.058468430645253144
238902.80000000307  0.06346923312952713
238902.90000000308  0.06865737627908614
238903.00000000309  0.07401051223458224
238903.1000000031  0.07950272374788328
238903.2000000031  0.08510462259211726
238903.3000000031  0.09078351802330223
238903.4000000031  0.09650365675777442
238903.5000000031  0.10222653423069786
238903.60000000312  0.10791127509388082
238903.70000000313  0.11351507904778749
238903.80000000313  0.11899372623918208
238903.90000000314  0.12430213465232473
238904.00000000314  0.12939496023886335
238904.10000000315  0.13422722902881568
238904.20000000315  0.13875498919817994
238904.30000000316  0.14293597008757863
238904.40000000317  0.14673023451240427
238904.50000000317  0.1501008104103062
238904.60000000318  0.15301428795634628
238904.70000000318  0.15544136874824252
238904.8000000032  0.15735735451819272
238904.9000000032  0.15874256404549217
238905.0000000032  0.1595826684954872
238905.1000000032  0.1598689372513953
238905.2000000032  0.15959838838478935
238905.30000000322  0.15877384016586765
238905.40000000322  0.15740386237880136
238905.50000000323  0.15550262860915573
238905.60000000324  0.15308967303661533
238905.70000000324  0.1501895575256874
238905.80000000325  0.14683145689189955
238905.90000000325  0.14304867206991084
238906.00000000326  0.13887808246970926
238906.10000000327  0.1343595500349614
238906.20000000327  0.12953528838212425
238906.30000000328  0.12444921088200134
238906.40000000328  0.1191462716408033
238906.5000000033  0.11367181305355026
238906.6000000033  0.10807093295868445
238906.7000000033  0.10238788345014782
238906.8000000033  0.09666551214381078
238906.9000000033  0.0909447551984009
238907.00000000332  0.08526418971240068
238907.10000000332  0.07965965131763827
238907.20000000333  0.07416392092755092
238907.30000000334  0.06880648273410064
238907.40000000334  0.06361335373778587
238907.50000000335  0.05860698339266729
238907.60000000335  0.05380622039711164
238907.70000000336  0.04922634229830086
238907.80000000336  0.04487914243222635
238907.90000000337  0.04077306780984366
238908.00000000338  0.0369134008932793
238908.10000000338  0.03330247778427928
238908.2000000034  0.029939935161752
238908.3000000034  0.026822978341776438
238908.4000000034  0.023946663069966873
