#  Species 2: 154 CH3{13}CN
#  1e+17 200.0 5.0 0.0 0.7   
# N(cm^-2) T(K) dv(km/s) vlsr(km/s) size(") 
238850.0  0.037181523596389654
238850.1  0.04385241558373296
238850.2  0.051539121684566425
238850.30000000002  0.06036108378300195
238850.40000000002  0.07044544200813993
238850.50000000003  0.08192640790622038
238850.60000000003  0.09494439512507089
238850.70000000004  0.10964488691782112
238850.80000000005  0.12617702351611088
238850.90000000005  0.14469189734059873
238851.00000000006  0.16534055012961138
238851.10000000006  0.1882716733508505
238851.20000000007  0.2136290216370724
238851.30000000008  0.2415485583171293
238851.40000000008  0.2721553621973479
238851.5000000001  0.3055603353199724
238851.6000000001  0.3418567621593328
238851.7000000001  0.3811167812313885
238851.8000000001  0.4233878399639138
238851.9000000001  0.4686892124495028
238852.00000000012  0.5170086669191808
238852.10000000012  0.5682993749807864
238852.20000000013  0.6224771574514122
238852.30000000013  0.6794181616284534
238852.40000000014  0.7389570618282578
238852.50000000015  0.8008858688250287
238852.60000000015  0.8649534244230475
238852.70000000016  0.9308656449093123
238852.80000000016  0.9982865618221104
238852.90000000017  1.0668401907316796
238853.00000000017  1.1361132390854731
238853.10000000018  1.2056586432484973
238853.2000000002  1.2749999033672426
238853.3000000002  1.343636163342791
238853.4000000002  1.4110479627534198
238853.5000000002  1.4767035687242773
238853.6000000002  1.5400657791335222
238853.70000000022  1.6005990747046956
238853.80000000022  1.6577769868741243
238853.90000000023  1.7110895411155806
238854.00000000023  1.76005063178765
238854.10000000024  1.8042051845446745
238854.20000000024  1.8431359657998845
238854.30000000025  1.8764699054296976
238854.40000000026  1.9038838085621819
238854.50000000026  1.9251093445490588
238854.60000000027  1.9399372156981338
238854.70000000027  1.9482204246513435
238854.80000000028  1.9498765770486057
238854.90000000029  1.944889174951808
238855.0000000003  1.9333078760671822
238855.1000000003  1.9152477137673598
238855.2000000003  1.8908872929565663
238855.3000000003  1.860465996625788
238855.4000000003  1.8242802571851344
238855.50000000032  1.7826789649981405
238855.60000000033  1.7360581036195364
238855.70000000033  1.6848547166766075
238855.80000000034  1.6295403247462752
238855.90000000034  1.5706139215772859
238856.00000000035  1.5085946872205391
238856.10000000036  1.4440145607319288
238856.20000000036  1.3774108168397414
238856.30000000037  1.3093187891492792
238856.40000000037  1.2402648770312867
238856.50000000038  1.1707599643750877
238856.60000000038  1.1012933660883244
238856.7000000004  1.032327402937014
238856.8000000004  0.9642926875164176
238856.9000000004  0.8975841844120688
238857.0000000004  0.8325580866232561
238857.1000000004  0.769529528805137
238857.20000000042  0.7087711365838675
238857.30000000042  0.6505123908347592
238857.40000000043  0.5949397670528906
238857.50000000044  0.542197593366172
238857.60000000044  0.49238955680567176
238857.70000000045  0.44558077648707106
238857.80000000045  0.4018003545589496
238857.90000000046  0.3610443111844752
238858.00000000047  0.3232788083544059
238858.10000000047  0.28844356877305866
238858.20000000048  0.2564554001071473
238858.30000000048  0.22721174115632967
238858.4000000005  0.20059415456007346
238858.5000000005  0.1764717000382635
238858.6000000005  0.15470413241287614
238858.7000000005  0.13514487933337818
238858.8000000005  0.11764376432564647
238858.90000000052  0.10204945114797043
238859.00000000052  0.08821159517263505
238859.10000000053  0.07598269638416869
238859.20000000054  0.0652196564270465
238859.30000000054  0.0557850488382762
238859.40000000055  0.047548117113609845
238859.50000000055  0.0403855195792531
238859.60000000056  0.034181843215267405
238859.70000000056  0.028829910678036336
238859.80000000057  0.024230905898009164
238859.90000000058  0.020294343903304674
238860.00000000058  0.016937910068285406
238860.1000000006  0.014087192939778115
238860.2000000006  0.011675333282113592
238860.3000000006  0.009642610128205803
238860.4000000006  0.007935982540745068
238860.5000000006  0.006508603575850452
238860.60000000062  0.005319320688808915
238860.70000000062  0.004332174600291172
238860.80000000063  0.003515906510883293
238860.90000000063  0.0028434815564858107
238861.00000000064  0.0022916345697904794
238861.10000000065  0.001840442574282869
238861.20000000065  0.0014729269982271254
238861.30000000066  0.0011746873592586304
238861.40000000066  0.0009335671310999605
238861.50000000067  0.0007393516532401279
238861.60000000068  0.0005834972679006623
238861.70000000068  0.0004588903507354858
238861.8000000007  0.00035963452352916203
238861.9000000007  0.0002808640811934604
238862.0000000007  0.00021858151227657774
238862.1000000007  0.00016951692475980495
238862.2000000007  0.0001310071903394272
238862.30000000072  0.00010089267574425742
238862.40000000072  7.742952525086055e-05
238862.50000000073  5.9215582986549276e-05
238862.60000000073  4.5128186814819005e-05
238862.70000000074  3.4272219193165476e-05
238862.80000000075  2.593695805108709e-05
238862.90000000075  1.9560426781584095e-05
238863.00000000076  1.4700093217662191e-05
238863.10000000076  1.1008910196202981e-05
238863.20000000077  8.215822515145188e-06
238863.30000000077  6.109986470881346e-06
238863.40000000078  4.528057463148993e-06
238863.5000000008  3.3439986414640632e-06
238863.6000000008  2.4609497024929983e-06
238863.7000000008  1.8047700108825282e-06
238863.8000000008  1.3189352544851207e-06
238863.9000000008  9.605225633479986e-07
238864.00000000081  6.970663999072979e-07
238864.10000000082  5.04107561694056e-07
238864.20000000083  3.6329109764920986e-07
238864.30000000083  2.6089681723351354e-07
238864.40000000084  1.8670901980044619e-07
238864.50000000084  1.3315095614974126e-07
238864.60000000085  9.462497538303971e-08
238864.70000000086  6.701156290978005e-08
238864.80000000086  4.729074790099652e-08
238864.90000000087  3.325715519642003e-08
238865.00000000087  2.3306471447215316e-08
238865.10000000088  1.6276102327017483e-08
238865.20000000088  1.132678850712665e-08
238865.3000000009  7.854989964029002e-09
238865.4000000009  5.428338833990409e-09
238865.5000000009  3.738273579578788e-09
238865.6000000009  2.565413520505544e-09
238865.7000000009  1.7543915209472516e-09
238865.80000000092  1.1955769707583386e-09
238865.90000000093  8.11916783804989e-10
238866.00000000093  5.4944937488699e-10
238866.10000000094  3.7053421442223566e-10
238866.20000000094  2.4900514983272615e-10
238866.30000000095  1.667506688285414e-10
238866.40000000095  1.1127915255926268e-10
238866.50000000096  7.400202672869227e-11
238866.60000000097  4.904168737773773e-11
238866.70000000097  3.238453949450104e-11
238866.80000000098  2.131048115749934e-11
238866.90000000098  1.3973794343868917e-11
238867.000000001  9.131750910995606e-12
238867.100000001  5.946687586799726e-12
238867.200000001  3.861660990978066e-12
238867.300000001  2.4946711363327267e-12
238867.400000001  1.6063539387545234e-12
238867.50000000102  1.0310086118181516e-12
238867.60000000102  6.628031457012185e-13
238867.70000000103  4.234390615920347e-13
238867.80000000104  2.669531262711189e-13
238867.90000000104  1.7030821197749901e-13
238868.00000000105  1.0585976539800868e-13
238868.10000000105  6.902811655606911e-14
238868.20000000106  4.141131881851834e-14
238868.30000000107  2.761679773755077e-14
238868.40000000107  1.840194663316197e-14
238868.50000000108  9.2148511043888e-15
238868.60000000108  4.6074255521944e-15
238868.7000000011  4.6074255521944e-15
238868.8000000011  4.6074255521944e-15
238868.9000000011  0.0
238869.0000000011  0.0
238869.1000000011  0.0
238869.20000000112  0.0
238869.30000000112  0.0
238869.40000000113  0.0
238869.50000000114  0.0
238869.60000000114  0.0
238869.70000000115  0.0
238869.80000000115  0.0
238869.90000000116  0.0
238870.00000000116  0.0
238870.10000000117  0.0
238870.20000000118  0.0
238870.30000000118  0.0
238870.4000000012  0.0
238870.5000000012  0.0
238870.6000000012  0.0
238870.7000000012  0.0
238870.8000000012  0.0
238870.90000000122  0.0
238871.00000000122  0.0
238871.10000000123  0.0
238871.20000000123  0.0
238871.30000000124  0.0
238871.40000000125  0.0
238871.50000000125  0.0
238871.60000000126  0.0
238871.70000000126  0.0
238871.80000000127  0.0
238871.90000000127  0.0
238872.00000000128  0.0
238872.1000000013  0.0
238872.2000000013  0.0
238872.3000000013  0.0
238872.4000000013  0.0
238872.5000000013  0.0
238872.60000000132  0.0
238872.70000000132  0.0
238872.80000000133  0.0
238872.90000000133  0.0
238873.00000000134  0.0
238873.10000000134  0.0
238873.20000000135  0.0
238873.30000000136  0.0
238873.40000000136  0.0
238873.50000000137  0.0
238873.60000000137  0.0
238873.70000000138  0.0
238873.80000000139  0.0
238873.9000000014  0.0
238874.0000000014  0.0
238874.1000000014  0.0
238874.2000000014  0.0
238874.3000000014  0.0
238874.40000000142  0.0
238874.50000000143  0.0
238874.60000000143  0.0
238874.70000000144  0.0
238874.80000000144  0.0
238874.90000000145  0.0
238875.00000000146  0.0
238875.10000000146  0.0
238875.20000000147  0.0
238875.30000000147  0.0
238875.40000000148  0.0
238875.50000000148  0.0
238875.6000000015  0.0
238875.7000000015  0.0
238875.8000000015  0.0
238875.9000000015  0.0
238876.0000000015  0.0
238876.10000000152  0.0
238876.20000000153  0.0
238876.30000000153  0.0
238876.40000000154  0.0
238876.50000000154  0.0
238876.60000000155  0.0
238876.70000000155  0.0
238876.80000000156  0.0
238876.90000000157  0.0
238877.00000000157  0.0
238877.10000000158  0.0
238877.20000000158  0.0
238877.3000000016  0.0
238877.4000000016  0.0
238877.5000000016  0.0
238877.6000000016  0.0
238877.7000000016  0.0
238877.80000000162  0.0
238877.90000000162  0.0
238878.00000000163  0.0
238878.10000000164  0.0
238878.20000000164  0.0
238878.30000000165  0.0
238878.40000000165  0.0
238878.50000000166  0.0
238878.60000000166  0.0
238878.70000000167  0.0
238878.80000000168  0.0
238878.90000000168  0.0
238879.0000000017  0.0
238879.1000000017  0.0
238879.2000000017  0.0
238879.3000000017  0.0
238879.4000000017  0.0
238879.50000000172  0.0
238879.60000000172  0.0
238879.70000000173  0.0
238879.80000000173  0.0
238879.90000000174  0.0
238880.00000000175  0.0
238880.10000000175  0.0
238880.20000000176  0.0
238880.30000000176  0.0
238880.40000000177  0.0
238880.50000000178  0.0
238880.60000000178  0.0
238880.7000000018  0.0
238880.8000000018  0.0
238880.9000000018  0.0
238881.0000000018  0.0
238881.1000000018  0.0
238881.20000000182  0.0
238881.30000000182  0.0
238881.40000000183  0.0
238881.50000000183  0.0
238881.60000000184  0.0
238881.70000000185  0.0
238881.80000000185  0.0
238881.90000000186  0.0
238882.00000000186  0.0
238882.10000000187  0.0
238882.20000000187  0.0
238882.30000000188  0.0
238882.4000000019  0.0
238882.5000000019  0.0
238882.6000000019  0.0
238882.7000000019  0.0
238882.8000000019  0.0
238882.90000000192  0.0
238883.00000000192  0.0
238883.10000000193  0.0
238883.20000000193  0.0
238883.30000000194  0.0
238883.40000000194  0.0
238883.50000000195  0.0
238883.60000000196  0.0
238883.70000000196  0.0
238883.80000000197  0.0
238883.90000000197  0.0
238884.00000000198  0.0
238884.10000000198  0.0
238884.200000002  0.0
238884.300000002  0.0
238884.400000002  0.0
238884.500000002  0.0
238884.600000002  0.0
238884.70000000202  0.0
238884.80000000203  0.0
238884.90000000203  0.0
238885.00000000204  0.0
238885.10000000204  0.0
238885.20000000205  0.0
238885.30000000205  0.0
238885.40000000206  0.0
238885.50000000207  0.0
238885.60000000207  0.0
238885.70000000208  0.0
238885.80000000208  0.0
238885.9000000021  0.0
238886.0000000021  0.0
238886.1000000021  0.0
238886.2000000021  0.0
238886.3000000021  0.0
238886.40000000212  0.0
238886.50000000212  0.0
238886.60000000213  0.0
238886.70000000214  0.0
238886.80000000214  0.0
238886.90000000215  0.0
238887.00000000215  0.0
238887.10000000216  0.0
238887.20000000217  0.0
238887.30000000217  0.0
238887.40000000218  0.0
238887.50000000218  0.0
238887.6000000022  0.0
238887.7000000022  0.0
238887.8000000022  0.0
238887.9000000022  0.0
238888.0000000022  0.0
238888.10000000222  0.0
238888.20000000222  0.0
238888.30000000223  0.0
238888.40000000224  0.0
238888.50000000224  0.0
238888.60000000225  0.0
238888.70000000225  0.0
238888.80000000226  0.0
238888.90000000226  0.0
238889.00000000227  0.0
238889.10000000228  0.0
238889.20000000228  0.0
238889.3000000023  0.0
238889.4000000023  0.0
238889.5000000023  0.0
238889.6000000023  0.0
238889.7000000023  0.0
238889.80000000232  0.0
238889.90000000232  0.0
238890.00000000233  0.0
238890.10000000233  0.0
238890.20000000234  0.0
238890.30000000235  0.0
238890.40000000235  0.0
238890.50000000236  0.0
238890.60000000236  0.0
238890.70000000237  0.0
238890.80000000237  0.0
238890.90000000238  0.0
238891.0000000024  0.0
238891.1000000024  0.0
238891.2000000024  4.6074255521944e-15
238891.3000000024  4.6074255521944e-15
238891.4000000024  9.2148511043888e-15
238891.50000000242  1.3822276656583199e-14
238891.60000000242  2.300937218535637e-14
238891.70000000243  3.683164884193957e-14
238891.80000000243  5.984102102729594e-14
238891.90000000244  9.66726698692355e-14
238892.00000000244  1.5190626534433704e-13
238892.10000000245  2.4397150966137815e-13
238892.20000000246  3.82055498349132e-13
238892.30000000246  5.984102102729594e-13
238892.40000000247  9.298395386991842e-13
238892.50000000247  1.4500067813116857e-12
238892.60000000248  2.2463697568753105e-12
238892.7000000025  3.4708347307343956e-12
238892.8000000025  5.3397564148127685e-12
238892.9000000025  8.193751233065427e-12
238893.0000000025  1.2525397385942938e-11
238893.1000000025  1.9075824253533824e-11
238893.20000000251  2.8958974107595736e-11
238893.30000000252  4.3809039729225674e-11
238893.40000000253  6.604272684285206e-11
238893.50000000253  9.921372057242195e-11
238893.60000000254  1.4852374885521158e-10
238893.70000000254  2.2156354528846123e-10
238893.80000000255  3.293671724247105e-10
238893.90000000256  4.879217585518347e-10
238894.00000000256  7.20285081579064e-10
238894.10000000257  1.0595960497905565e-09
238894.20000000257  1.5533190289573895e-09
238894.30000000258  2.2691452050693783e-09
238894.40000000258  3.303301465695796e-09
238894.5000000026  4.7920034051962546e-09
238894.6000000026  6.927382861787734e-09
238894.7000000026  9.979394782755335e-09
238894.8000000026  1.432591370531533e-08
238894.9000000026  2.049385505742407e-08
238895.00000000262  2.9215146607475262e-08
238895.10000000263  4.150263249735886e-08
238895.20000000263  5.8752492093638864e-08
238895.30000000264  8.288197581030055e-08
238895.40000000264  1.1651370304677222e-07
238895.50000000265  1.632213828817175e-07
238895.60000000265  2.2785586675788672e-07
238895.70000000266  3.169760930954446e-07
238895.80000000267  4.394160507958933e-07
238895.90000000267  6.070276179492851e-07
238896.00000000268  8.356494011485527e-07
238896.10000000268  1.1463649131349118e-06
238896.2000000027  1.567129142204804e-06
238896.3000000027  2.134862020414241e-06
238896.4000000027  2.898130632172924e-06
238896.5000000027  3.920570118387534e-06
238896.6000000027  5.285226636481122e-06
238896.70000000272  7.100045401275956e-06
238896.80000000272  9.504773158725e-06
238896.90000000273  1.2679598627191035e-05
238897.00000000274  1.685591660532948e-05
238897.10000000274  2.2329672738352624e-05
238897.20000000275  2.947782638826335e-05
238897.30000000275  3.877855903705596e-05
238897.40000000276  5.083595498911464e-05
238897.50000000276  6.640998934245856e-05
238897.60000000277  8.645277427507536e-05
238897.70000000278  0.00011215213662396639
238897.80000000278  0.0001449837254552666
238897.9000000028  0.00018677297419300576
238898.0000000028  0.00023976836326355944
238898.1000000028  0.00030672754088173493
238898.2000000028  0.00039101795434628994
238898.3000000028  0.0004967337136699834
238898.40000000282  0.0006288304441614823
238898.50000000282  0.0007932798734169577
238898.60000000283  0.0009972458285946728
238898.70000000283  0.0012492831787927483
238898.80000000284  0.001559561029894213
238898.90000000285  0.0019401111512914737
238899.00000000285  0.0024051021700498
238899.10000000286  0.0029711394949400727
238899.20000000286  0.0036575902172784613
238899.30000000287  0.0044869313680603595
238899.40000000288  0.005485118884282186
238899.50000000288  0.006681973449961187
238899.6000000029  0.008111578032488825
238899.7000000029  0.009812680443446825
238899.8000000029  0.011829092633828614
238899.9000000029  0.014210076714594927
238900.0000000029  0.017010705913593244
238900.10000000292  0.020292186887856778
238900.20000000292  0.024122128067294996
238900.30000000293  0.028574737083057605
238900.40000000293  0.033730928913728
238900.50000000294  0.039678325256083086
238900.60000000295  0.04651112489257006
238900.70000000295  0.054329824587319
238900.80000000296  0.06324077039923565
238900.90000000296  0.07335552035339793
238901.00000000297  0.08479000125029396
238901.10000000297  0.09766344509116501
238901.20000000298  0.11209709421029407
238901.300000003  0.12821266875710718
238901.400000003  0.14613059565438083
238901.500000003  0.16596800452546978
238901.600000003  0.1878365032408261
238901.700000003  0.2118397535419264
238901.80000000302  0.23807087546976682
238901.90000000302  0.26660971781818066
238902.00000000303  0.2975200402684466
238902.10000000303  0.330846660922931
238902.20000000304  0.36661263029797786
238902.30000000304  0.40481649910128054
238902.40000000305  0.44542975195247975
238902.50000000306  0.48839448227168525
238902.60000000306  0.5336213845646383
238902.70000000307  0.5809881390375954
238902.80000000307  0.6303382597186785
238902.90000000308  0.681480470975648
238903.00000000309  0.7341886685341089
238903.1000000031  0.7882025099554201
238903.2000000031  0.8432286662780741
238903.3000000031  0.8989427515097416
238903.4000000031  0.9549919303196046
238903.5000000031  1.010998187132064
238903.60000000312  1.066562222422928
238903.70000000313  1.1212679249485582
238903.80000000313  1.1746873524729322
238903.90000000314  1.2263861388404096
238904.00000000314  1.2759292324588292
238904.10000000315  1.322886860816525
238904.20000000315  1.3668406078727695
238904.30000000316  1.4073894862462644
238904.40000000317  1.4441558841886266
238904.50000000317  1.47679126837564
238904.60000000318  1.5049815274914922
238904.70000000318  1.5284518482546106
238904.8000000032  1.5469710247061461
238904.9000000032  1.5603551129734436
238905.0000000032  1.568470357016626
238905.1000000032  1.571235325731861
238905.2000000032  1.5686222178738554
238905.30000000322  1.5606573082240878
238905.40000000322  1.5474205259211073
238905.50000000323  1.5290441735372635
238905.60000000324  1.5057108129859633
238905.70000000324  1.4776503613271421
238905.80000000325  1.445136455657408
238905.90000000325  1.4084821611762335
238906.00000000326  1.3680351098644563
238906.10000000327  1.3241721686613315
238906.20000000327  1.2772937452655433
238906.30000000328  1.2278178464332525
238906.40000000328  1.1761740076687295
238906.5000000033  1.1227972143324183
238906.6000000033  1.0681219323383513
238906.7000000033  1.0125763617810914
238906.8000000033  0.9565770191270159
238906.9000000033  0.9005237432347719
238907.00000000332  0.844795207747493
238907.10000000332  0.7897450077304458
238907.20000000333  0.7356983722957551
238907.30000000334  0.6829495379028887
238907.40000000334  0.631759799624706
238907.50000000335  0.5823562405054593
238907.60000000335  0.5349311227689738
238907.70000000336  0.4896419095751609
238907.80000000336  0.44661187271220326
238907.90000000337  0.4059312304035728
238908.00000000338  0.36765875055395
238908.10000000338  0.3318237483998548
238908.2000000034  0.2984284037033299
238908.3000000034  0.26745032126397617
238908.4000000034  0.23884525946639182
238908.5000000034  0.21254995459181014
