#  Species 2: 154 CH3{13}CN
#  1e+15 200.0 5.0 0.0 0.5   
# N(cm^-2) T(K) dv(km/s) vlsr(km/s) size(") 
238850.0  0.0002419305068524502
238850.1  0.0002853590514876325
238850.2  0.00033540930043907125
238850.30000000002  0.00039286285930870135
238850.40000000002  0.00045855270860845065
238850.50000000003  0.0005333594122486074
238850.60000000003  0.0006182057882244407
238850.70000000004  0.0007140499052234739
238850.80000000005  0.0008218762904827481
238850.90000000005  0.0009426852627167637
238851.00000000006  0.0010774803397280708
238851.10000000006  0.0012272537129134342
238851.20000000007  0.0013929698302732885
238851.30000000008  0.0015755471849672464
238851.40000000008  0.001775838466757551
238851.5000000001  0.0019946092977747854
238851.6000000001  0.002232515840264404
238851.7000000001  0.0024900816300854334
238851.8000000001  0.0027676740541172917
238851.9000000001  0.003065480949309335
238852.00000000012  0.003383487854004552
238852.10000000012  0.0037214564853690624
238852.20000000013  0.004078905047936232
238852.30000000013  0.004455090995130334
238852.40000000014  0.004848996865903565
238852.50000000015  0.00525931980092928
238852.60000000015  0.0056844653056625505
238852.70000000016  0.006122545770470195
238852.80000000016  0.006571384181364853
238852.90000000017  0.007028523358821703
238853.00000000017  0.0074912409489024945
238853.10000000018  0.007956570262389273
238853.2000000002  0.008421326916994543
238853.3000000002  0.008882141088683404
238853.4000000002  0.009335495024960977
238853.5000000002  0.009777765320269777
238853.6000000002  0.010205269306423764
238853.70000000022  0.010614314774253009
238853.80000000022  0.01100125212134817
238853.90000000023  0.011362527919478366
238854.00000000023  0.011694738818208622
238854.10000000024  0.011994684651796872
238854.20000000024  0.012259419597199672
238854.30000000025  0.01248630024373687
238854.40000000026  0.012673029480090275
238854.50000000026  0.012817695181350008
238854.60000000027  0.012918802786005129
238854.70000000027  0.012975300987603716
238854.80000000028  0.012986599924008302
238854.90000000029  0.012952581424580445
238855.0000000003  0.01287360106665389
238855.1000000003  0.01275048199122436
238855.2000000003  0.012584500628164103
238855.3000000003  0.012377364676811192
238855.4000000003  0.012131183872606893
238855.50000000032  0.011848434238904693
238855.60000000033  0.011531916670133258
238855.70000000033  0.011184710813763127
238855.80000000034  0.010810125310927787
238855.90000000034  0.010411645516737539
238856.00000000035  0.00999287985014935
238856.10000000036  0.009557505919798898
238856.20000000036  0.00910921753756555
238856.30000000037  0.008651673667946919
238856.40000000037  0.008188450271621212
238856.50000000038  0.007722995889673651
238856.60000000038  0.007258591685340793
238856.7000000004  0.006798316517517583
238856.8000000004  0.00634501746957708
238856.9000000004  0.005901286103632553
238857.0000000004  0.005469440558598576
238857.1000000004  0.005051513465153951
238857.20000000042  0.004649245515713718
238857.30000000042  0.004264084406277735
238857.40000000043  0.0038971887622274715
238857.50000000044  0.003549436573637682
238857.60000000044  0.0032214375986791
238857.70000000045  0.002913549146786515
238857.80000000045  0.0026258946258837512
238857.90000000046  0.0023583842295031854
238858.00000000047  0.0021107371484266058
238858.10000000047  0.001882504715877087
238858.20000000048  0.0016730939327090633
238858.30000000048  0.0014817908674731872
238858.4000000005  0.0013077834828322255
238858.5000000005  0.001150183502010127
238858.6000000005  0.0010080469946174841
238858.7000000005  0.000880393427516446
238858.8000000005  0.000766222991831822
238858.90000000052  0.0006645320795651277
238859.00000000052  0.0005743268412601865
238859.10000000053  0.0004946348087332686
238859.20000000054  0.0004245146128246946
238859.30000000054  0.0003630638654656404
238859.40000000055  0.00030942530739652696
238859.50000000055  0.0002627913478780719
238859.60000000056  0.00022240714102644832
238859.70000000056  0.00018757235523297888
238859.80000000057  0.00015764179822827518
238859.90000000058  0.00013202506137141579
238860.00000000058  0.00011018534335810459
238860.1000000006  9.163760667074694e-05
238860.2000000006  7.59462103253894e-05
238860.3000000006  6.272215066571718e-05
238860.4000000006  5.162002872308169e-05
238860.5000000006  4.233484866800197e-05
238860.60000000062  3.459873759070753e-05
238860.70000000062  2.8177662788869684e-05
238860.80000000063  2.286820922803301e-05
238860.90000000063  1.8494467139196225e-05
238861.00000000064  1.4905068163567625e-05
238861.10000000065  1.1970397953392498e-05
238861.20000000065  9.580003998810316e-06
238861.30000000066  7.640209586434743e-06
238861.40000000066  6.071938097151897e-06
238861.50000000067  4.808746460638336e-06
238861.60000000068  3.7950622691074187e-06
238861.70000000068  2.984615668943924e-06
238861.8000000007  2.3390548504476083e-06
238861.9000000007  1.8267321806042514e-06
238862.0000000007  1.421647209232102e-06
238862.1000000007  1.1025321865754112e-06
238862.2000000007  8.520659302013733e-07
238862.30000000072  6.562020895550802e-07
238862.40000000072  5.035985826962186e-07
238862.50000000073  3.85135788816271e-07
238862.60000000073  2.935119120806018e-07
238862.70000000074  2.229051353497269e-07
238862.80000000075  1.6869293703591914e-07
238862.90000000075  1.2722024025912937e-07
238863.00000000076  9.560883004744447e-08
238863.10000000076  7.160152745711024e-08
238863.20000000077  5.34353977177382e-08
238863.30000000077  3.973912432453375e-08
238863.40000000078  2.9450320043755696e-08
238863.5000000008  2.1749247874902622e-08
238863.6000000008  1.6005929026619015e-08
238863.7000000008  1.1738162219998571e-08
238863.8000000008  8.578310672913148e-09
238863.9000000008  6.24720777886445e-09
238864.00000000081  4.533696640329765e-09
238864.10000000082  3.2786984238697414e-09
238864.20000000083  2.36283442811569e-09
238864.30000000083  1.6968646210369087e-09
238864.40000000084  1.2143505923045694e-09
238864.50000000084  8.660099026780443e-10
238864.60000000085  6.154382004019965e-10
238864.70000000086  4.3584033604382455e-10
238864.80000000086  3.075787680106856e-10
238864.90000000087  2.1630242041936754e-10
238865.00000000087  1.5158480026755683e-10
238865.10000000088  1.0585826659692543e-10
238865.20000000088  7.366854348767049e-11
238865.3000000009  5.108816147902928e-11
238865.4000000009  3.530609138380214e-11
238865.5000000009  2.431374546141285e-11
238865.6000000009  1.668615245975502e-11
238865.7000000009  1.1411482869760903e-11
238865.80000000092  7.777306576528531e-12
238865.90000000093  5.2806647943270946e-12
238866.00000000093  3.574335272205076e-12
238866.10000000094  2.409822341675749e-12
238866.20000000094  1.6195378371719471e-12
238866.30000000095  1.0836886943366153e-12
238866.40000000095  7.244482791435303e-13
238866.50000000096  4.819755705653961e-13
238866.60000000097  3.203270981799733e-13
238866.70000000097  2.095545958979983e-13
238866.80000000098  1.3769541062913504e-13
238866.90000000098  8.981704269217516e-14
238867.000000001  5.986877660291157e-14
238867.100000001  3.8913317013111737e-14
238867.200000001  2.3953061756287752e-14
238867.300000001  1.4960255256823984e-14
238867.400000001  8.992806499463768e-15
238867.50000000102  5.995204332975845e-15
238867.60000000102  2.9976021664879227e-15
238867.70000000103  2.9976021664879227e-15
238867.80000000104  2.9976021664879227e-15
238867.90000000104  0.0
238868.00000000105  0.0
238868.10000000105  0.0
238868.20000000106  0.0
238868.30000000107  0.0
238868.40000000107  0.0
238868.50000000108  0.0
238868.60000000108  0.0
238868.7000000011  0.0
238868.8000000011  0.0
238868.9000000011  0.0
238869.0000000011  0.0
238869.1000000011  0.0
238869.20000000112  0.0
238869.30000000112  0.0
238869.40000000113  0.0
238869.50000000114  0.0
238869.60000000114  0.0
238869.70000000115  0.0
238869.80000000115  0.0
238869.90000000116  0.0
238870.00000000116  0.0
238870.10000000117  0.0
238870.20000000118  0.0
238870.30000000118  0.0
238870.4000000012  0.0
238870.5000000012  0.0
238870.6000000012  0.0
238870.7000000012  0.0
238870.8000000012  0.0
238870.90000000122  0.0
238871.00000000122  0.0
238871.10000000123  0.0
238871.20000000123  0.0
238871.30000000124  0.0
238871.40000000125  0.0
238871.50000000125  0.0
238871.60000000126  0.0
238871.70000000126  0.0
238871.80000000127  0.0
238871.90000000127  0.0
238872.00000000128  0.0
238872.1000000013  0.0
238872.2000000013  0.0
238872.3000000013  0.0
238872.4000000013  0.0
238872.5000000013  0.0
238872.60000000132  0.0
238872.70000000132  0.0
238872.80000000133  0.0
238872.90000000133  0.0
238873.00000000134  0.0
238873.10000000134  0.0
238873.20000000135  0.0
238873.30000000136  0.0
238873.40000000136  0.0
238873.50000000137  0.0
238873.60000000137  0.0
238873.70000000138  0.0
238873.80000000139  0.0
238873.9000000014  0.0
238874.0000000014  0.0
238874.1000000014  0.0
238874.2000000014  0.0
238874.3000000014  0.0
238874.40000000142  0.0
238874.50000000143  0.0
238874.60000000143  0.0
238874.70000000144  0.0
238874.80000000144  0.0
238874.90000000145  0.0
238875.00000000146  0.0
238875.10000000146  0.0
238875.20000000147  0.0
238875.30000000147  0.0
238875.40000000148  0.0
238875.50000000148  0.0
238875.6000000015  0.0
238875.7000000015  0.0
238875.8000000015  0.0
238875.9000000015  0.0
238876.0000000015  0.0
238876.10000000152  0.0
238876.20000000153  0.0
238876.30000000153  0.0
238876.40000000154  0.0
238876.50000000154  0.0
238876.60000000155  0.0
238876.70000000155  0.0
238876.80000000156  0.0
238876.90000000157  0.0
238877.00000000157  0.0
238877.10000000158  0.0
238877.20000000158  0.0
238877.3000000016  0.0
238877.4000000016  0.0
238877.5000000016  0.0
238877.6000000016  0.0
238877.7000000016  0.0
238877.80000000162  0.0
238877.90000000162  0.0
238878.00000000163  0.0
238878.10000000164  0.0
238878.20000000164  0.0
238878.30000000165  0.0
238878.40000000165  0.0
238878.50000000166  0.0
238878.60000000166  0.0
238878.70000000167  0.0
238878.80000000168  0.0
238878.90000000168  0.0
238879.0000000017  0.0
238879.1000000017  0.0
238879.2000000017  0.0
238879.3000000017  0.0
238879.4000000017  0.0
238879.50000000172  0.0
238879.60000000172  0.0
238879.70000000173  0.0
238879.80000000173  0.0
238879.90000000174  0.0
238880.00000000175  0.0
238880.10000000175  0.0
238880.20000000176  0.0
238880.30000000176  0.0
238880.40000000177  0.0
238880.50000000178  0.0
238880.60000000178  0.0
238880.7000000018  0.0
238880.8000000018  0.0
238880.9000000018  0.0
238881.0000000018  0.0
238881.1000000018  0.0
238881.20000000182  0.0
238881.30000000182  0.0
238881.40000000183  0.0
238881.50000000183  0.0
238881.60000000184  0.0
238881.70000000185  0.0
238881.80000000185  0.0
238881.90000000186  0.0
238882.00000000186  0.0
238882.10000000187  0.0
238882.20000000187  0.0
238882.30000000188  0.0
238882.4000000019  0.0
238882.5000000019  0.0
238882.6000000019  0.0
238882.7000000019  0.0
238882.8000000019  0.0
238882.90000000192  0.0
238883.00000000192  0.0
238883.10000000193  0.0
238883.20000000193  0.0
238883.30000000194  0.0
238883.40000000194  0.0
238883.50000000195  0.0
238883.60000000196  0.0
238883.70000000196  0.0
238883.80000000197  0.0
238883.90000000197  0.0
238884.00000000198  0.0
238884.10000000198  0.0
238884.200000002  0.0
238884.300000002  0.0
238884.400000002  0.0
238884.500000002  0.0
238884.600000002  0.0
238884.70000000202  0.0
238884.80000000203  0.0
238884.90000000203  0.0
238885.00000000204  0.0
238885.10000000204  0.0
238885.20000000205  0.0
238885.30000000205  0.0
238885.40000000206  0.0
238885.50000000207  0.0
238885.60000000207  0.0
238885.70000000208  0.0
238885.80000000208  0.0
238885.9000000021  0.0
238886.0000000021  0.0
238886.1000000021  0.0
238886.2000000021  0.0
238886.3000000021  0.0
238886.40000000212  0.0
238886.50000000212  0.0
238886.60000000213  0.0
238886.70000000214  0.0
238886.80000000214  0.0
238886.90000000215  0.0
238887.00000000215  0.0
238887.10000000216  0.0
238887.20000000217  0.0
238887.30000000217  0.0
238887.40000000218  0.0
238887.50000000218  0.0
238887.6000000022  0.0
238887.7000000022  0.0
238887.8000000022  0.0
238887.9000000022  0.0
238888.0000000022  0.0
238888.10000000222  0.0
238888.20000000222  0.0
238888.30000000223  0.0
238888.40000000224  0.0
238888.50000000224  0.0
238888.60000000225  0.0
238888.70000000225  0.0
238888.80000000226  0.0
238888.90000000226  0.0
238889.00000000227  0.0
238889.10000000228  0.0
238889.20000000228  0.0
238889.3000000023  0.0
238889.4000000023  0.0
238889.5000000023  0.0
238889.6000000023  0.0
238889.7000000023  0.0
238889.80000000232  0.0
238889.90000000232  0.0
238890.00000000233  0.0
238890.10000000233  0.0
238890.20000000234  0.0
238890.30000000235  0.0
238890.40000000235  0.0
238890.50000000236  0.0
238890.60000000236  0.0
238890.70000000237  0.0
238890.80000000237  0.0
238890.90000000238  0.0
238891.0000000024  0.0
238891.1000000024  0.0
238891.2000000024  0.0
238891.3000000024  0.0
238891.4000000024  0.0
238891.50000000242  0.0
238891.60000000242  0.0
238891.70000000243  0.0
238891.80000000243  0.0
238891.90000000244  0.0
238892.00000000244  0.0
238892.10000000245  2.9976021664879227e-15
238892.20000000246  2.9976021664879227e-15
238892.30000000246  2.9976021664879227e-15
238892.40000000247  5.995204332975845e-15
238892.50000000247  8.992806499463768e-15
238892.60000000248  1.4960255256823984e-14
238892.7000000025  2.3953061756287752e-14
238892.8000000025  3.5915714846623814e-14
238892.9000000025  5.390132784555135e-14
238893.0000000025  8.085199176832703e-14
238893.1000000025  1.2276291094792668e-13
238893.20000000251  1.886268918838141e-13
238893.30000000252  2.844391389089651e-13
238893.40000000253  4.281575094466916e-13
238893.50000000253  6.467049118441537e-13
238893.60000000254  9.670875211753582e-13
238893.70000000254  1.4401257963925218e-12
238893.80000000255  2.1437296382487148e-12
238893.90000000256  3.173711293769088e-12
238894.00000000256  4.685696275430473e-12
238894.10000000257  6.892320048024203e-12
238894.20000000257  1.010197481221553e-11
238894.30000000258  1.475772282155674e-11
238894.40000000258  2.1485396795029033e-11
238894.5000000026  3.116823465987295e-11
238894.6000000026  4.50577353205972e-11
238894.7000000026  6.490843973416816e-11
238894.8000000026  9.317849269940837e-11
238894.9000000026  1.3329615189405786e-10
238895.00000000262  1.9002197038098245e-10
238895.10000000263  2.6994295687643444e-10
238895.20000000263  3.821402361214865e-10
238895.30000000264  5.390841384400602e-10
238895.40000000264  7.578320748713452e-10
238895.50000000265  1.0616302004162748e-09
238895.60000000265  1.482027361943139e-09
238895.70000000266  2.0616864604416918e-09
238895.80000000267  2.8580643685049978e-09
238895.90000000267  3.9482503377819e-09
238896.00000000268  5.435262545594455e-09
238896.10000000268  7.45622821818337e-09
238896.2000000027  1.0192979710277328e-08
238896.3000000027  1.3885650879119638e-08
238896.4000000027  1.885013578561967e-08
238896.5000000027  2.5500332151429106e-08
238896.6000000027  3.437639098380352e-08
238896.70000000272  4.618041860027233e-08
238896.80000000272  6.182135883769924e-08
238896.90000000273  8.247121088822418e-08
238897.00000000274  1.0963502644623091e-07
238897.10000000274  1.4523770991425877e-07
238897.20000000275  1.9173110704651108e-07
238897.30000000275  2.5222544514091894e-07
238897.40000000276  3.306498524702217e-07
238897.50000000276  4.3194742743724035e-07
238897.60000000277  5.623109955443795e-07
238897.70000000278  7.29466551441238e-07
238897.80000000278  9.430122011322428e-07
238897.9000000028  1.2148212065188346e-06
238898.0000000028  1.559518528149173e-06
238898.1000000028  1.9950410496405446e-06
238898.2000000028  2.543292178774914e-06
238898.3000000028  3.2309020900900265e-06
238898.40000000282  4.0901050315234055e-06
238898.50000000282  5.159745079696965e-06
238898.60000000283  6.486421278484311e-06
238898.70000000283  8.125782216317212e-06
238898.80000000284  1.0143978620508198e-05
238898.90000000285  1.2619280433862068e-05
238899.00000000285  1.564386202107526e-05
238899.10000000286  1.9325755460680716e-05
238899.20000000286  2.37909672882175e-05
238899.30000000287  2.91857484872593e-05
238899.40000000288  3.5679000982669073e-05
238899.50000000288  4.346479627612143e-05
238899.6000000029  5.276497323788987e-05
238899.7000000029  6.383177261282125e-05
238899.8000000029  7.695045541500356e-05
238899.9000000029  9.244184143530898e-05
238900.0000000029  0.00011066469280068825
238900.10000000292  0.0001320178560358376
238900.20000000292  0.00015694206503974462
238900.30000000293  0.00018592129704875227
238900.40000000293  0.00021948356442796912
238900.50000000294  0.00025820101804591156
238900.60000000295  0.0003026892329143216
238900.70000000295  0.00035360554497210206
238900.80000000296  0.00041164630968190674
238900.90000000296  0.0004775429589824187
238901.00000000297  0.0005520567439352142
238901.10000000297  0.0006359720662624246
238901.20000000298  0.0007300883234055977
238901.300000003  0.0008352102188039778
238901.400000003  0.0009521365218964906
238901.500000003  0.001081647300469113
238901.600000003  0.0012244896912247116
238901.700000003  0.001381362321735663
238901.80000000302  0.0015528985476753188
238901.90000000302  0.0017396487218220014
238902.00000000303  0.0019420617645669047
238902.10000000303  0.0021604663576191008
238902.20000000304  0.002395052131576786
238902.30000000304  0.0026458512618961205
238902.40000000305  0.002912720924674733
238902.50000000306  0.0031953270912241094
238902.60000000306  0.0034931301571480555
238902.70000000307  0.0038053729054432217
238902.80000000307  0.00413107129283119
238902.90000000308  0.004469008522950901
238903.00000000309  0.0048177328285881615
238903.1000000031  0.005175559327681961
238903.2000000031  0.005540576245093409
238903.3000000031  0.005910655704719603
238903.4000000031  0.006283469196813718
238903.5000000031  0.0066565077148738605
238903.60000000312  0.007027106438742464
238903.70000000313  0.0073924737182676226
238903.80000000313  0.007749723989178864
238903.90000000314  0.008095914133385174
238904.00000000314  0.00842808268364209
238904.10000000315  0.008743291171894485
238904.20000000315  0.009038666834728065
238904.30000000316  0.00931144582227228
238904.40000000317  0.009559016011114724
238904.50000000317  0.009778958499892632
238904.60000000318  0.009969086869380722
238904.70000000318  0.010127483318327773
238904.8000000032  0.010252530841153351
238904.9000000032  0.010342940693384817
238905.0000000032  0.01039777449308485
238905.1000000032  0.010416460428565116
238905.2000000032  0.010398803181274563
238905.30000000322  0.01034498732323652
238905.40000000322  0.010255574106438708
238905.50000000323  0.010131491722228214
238905.60000000324  0.009974019266940498
238905.70000000324  0.009784764800781554
238905.80000000325  0.009565638025904766
238905.90000000325  0.009318818232260662
238906.00000000326  0.00904671826274539
238906.10000000327  0.008751945329583344
238906.20000000327  0.008437259569509664
238906.30000000328  0.008105531255445414
238906.40000000328  0.007759697586273012
238906.5000000033  0.007402719955097059
238906.6000000033  0.007037542551291964
238906.7000000033  0.006667053084977642
238906.8000000033  0.00629404633740438
238906.9000000033  0.00592119114023143
238907.00000000332  0.005551001274808398
238907.10000000332  0.005185810663293405
238907.20000000333  0.004827753100689808
238907.30000000334  0.004478746654648785
238907.40000000334  0.004140482741812085
238907.50000000335  0.0038144197789766465
238907.60000000335  0.0035017812070267385
238907.70000000336  0.0032035575980130238
238907.80000000336  0.0029205124824657758
238907.90000000337  0.002653191476162331
238908.00000000338  0.0024019342437069102
238908.10000000338  0.0021668888101868677
238908.2000000034  0.001948027721491663
