#  Species 2: 154 CH3{13}CN
#  1e+15 220.0 5.0 0.0 0.7   
# N(cm^-2) T(K) dv(km/s) vlsr(km/s) size(") 
238850.0  0.0003438882778262209
238850.1  0.00040561906549513305
238850.2  0.00047676216437927965
238850.30000000002  0.000558428576091341
238850.40000000002  0.000651802329070944
238850.50000000003  0.0007581350894806937
238850.60000000003  0.0008787385862606967
238850.70000000004  0.0010149746566342488
238850.80000000005  0.0011682427490513903
238850.90000000005  0.0013399647611527232
238851.00000000006  0.0015315671409665277
238851.10000000006  0.001744460240400425
238851.20000000007  0.0019800149800900946
238851.30000000008  0.002239536963492994
238851.40000000008  0.00252423826386286
238851.5000000001  0.0028352071988909655
238851.6000000001  0.003173376501708902
238851.7000000001  0.0035394903912421283
238851.8000000001  0.003934071136079409
238851.9000000001  0.004357385791035506
238852.00000000012  0.004809413860486167
238852.10000000012  0.005289816704234479
238852.20000000013  0.00579790954574691
238852.30000000013  0.006332636966772748
238852.40000000014  0.00689255277269521
238852.50000000015  0.007475805087785253
238852.60000000015  0.008080127486812638
238852.70000000016  0.008702836888399568
238852.80000000016  0.009340838826428055
238852.90000000017  0.009990640579306848
238853.00000000017  0.010648372476088103
238853.10000000018  0.01130981751553417
238853.2000000002  0.011970449234481678
238853.3000000002  0.012625477549982
238853.4000000002  0.013269902081867818
238853.5000000002  0.013898572245395147
238853.6000000002  0.014506253194224383
238853.70000000022  0.015087696499653358
238853.80000000022  0.015637714279444992
238853.90000000023  0.01615125534565895
238854.00000000023  0.016623481831220394
238854.10000000024  0.017049844684615567
238854.20000000024  0.017426156394767273
238854.30000000025  0.017748659326115718
238854.40000000026  0.01801408810809141
238854.50000000026  0.018219724632620754
238854.60000000027  0.018363444365783882
238854.70000000027  0.018443752871246943
238854.80000000028  0.018459811668179615
238854.90000000029  0.018411452798574507
238855.0000000003  0.018299181750304344
238855.1000000003  0.018124168664914175
238855.2000000003  0.017888228043786952
238855.3000000003  0.017593787444367487
238855.4000000003  0.017243845921117662
238855.50000000032  0.01684192320512823
238855.60000000033  0.01639200082550174
238855.70000000033  0.01589845654803515
238855.80000000034  0.01536599363798774
238855.90000000034  0.014799566540786041
238856.00000000035  0.014204304615338503
238856.10000000036  0.013585435549772568
238856.20000000036  0.012948210040097885
238856.30000000037  0.012297829221626838
238856.40000000037  0.011639376215490715
238856.50000000038  0.010977752993524131
238856.60000000038  0.010317623580317126
238856.7000000004  0.009663364408600494
238856.8000000004  0.009019022429936824
238856.9000000004  0.00838828136440986
238857.0000000004  0.007774436257420997
238857.1000000004  0.007180376305187641
238857.20000000042  0.006608575718582366
238857.30000000042  0.0060610922227525565
238857.40000000043  0.0055395726409532275
238857.50000000044  0.005045264888067169
238857.60000000044  0.004579035604146742
238857.70000000045  0.004141392591700294
238857.80000000045  0.0037325111814145995
238857.90000000046  0.003352263639159442
238858.00000000047  0.003000250739584931
238858.10000000047  0.0026758346662529575
238858.20000000048  0.0023781724515810065
238858.30000000048  0.0021062492386193232
238858.4000000005  0.0018589107270977345
238858.5000000005  0.001634894254846142
238858.6000000005  0.0014328580586125406
238858.7000000005  0.0012514083530479336
238858.8000000005  0.001089123959210847
238858.90000000052  0.0009445783028178278
238859.00000000052  0.0008163586849208038
238859.10000000053  0.0007030828021227509
238859.20000000054  0.0006034125591137807
238859.30000000054  0.000516065271934707
238859.40000000055  0.0004398224059966316
238859.50000000055  0.0003735360285599676
238859.60000000056  0.0003161331811417645
238859.70000000056  0.0002666183943043354
238859.80000000057  0.000224074575863209
238859.90000000058  0.0001876625050620251
238860.00000000058  0.00015661916036663337
238860.1000000006  0.00013025509887007458
238860.2000000006  0.00010795109128641789
238860.3000000006  8.915419986899042e-05
238860.4000000006  7.337346766397856e-05
238860.5000000006  6.017536770097642e-05
238860.60000000062  4.917914038415905e-05
238860.70000000062  4.005212731772456e-05
238860.80000000063  3.250519070838176e-05
238860.90000000063  2.6288289312087487e-05
238861.00000000064  2.1186265534822724e-05
238861.10000000065  1.701488333091805e-05
238861.20000000065  1.3617143680949573e-05
238861.30000000066  1.085989296389922e-05
238861.40000000066  8.630730400693842e-06
238861.50000000067  6.835212774863875e-06
238861.60000000068  5.394348598142251e-06
238861.70000000068  4.24236919338572e-06
238861.8000000007  3.3247607198472195e-06
238861.9000000007  2.5965387777937554e-06
238862.0000000007  2.0207459351939683e-06
238862.1000000007  1.5671519165150194e-06
238862.2000000007  1.2111361477606941e-06
238862.30000000072  9.327329452413213e-07
238862.40000000072  7.158205332369327e-07
238862.50000000073  5.474361478019496e-07
238862.60000000073  4.1720093410524406e-07
238862.70000000074  3.168396743025159e-07
238862.80000000075  2.397818608113056e-07
238862.90000000075  1.808321251628442e-07
238863.00000000076  1.358993311495471e-07
238863.10000000076  1.0177509915387795e-07
238863.20000000077  7.595357878753539e-08
238863.30000000077  5.6485560950836344e-08
238863.40000000078  4.186095126090805e-08
238863.5000000008  3.09145734012084e-08
238863.6000000008  2.2750967776374864e-08
238863.7000000008  1.6684723380677724e-08
238863.8000000008  1.2193283077666095e-08
238863.9000000008  8.879832730235293e-09
238864.00000000081  6.444235894909056e-09
238864.10000000082  4.660370672704417e-09
238864.20000000083  3.3585523251389304e-09
238864.30000000083  2.411937261026509e-09
238864.40000000084  1.7260842755106864e-09
238864.50000000084  1.2309551988831657e-09
238864.60000000085  8.747888802229653e-10
238864.70000000086  6.195077784099112e-10
238864.80000000086  4.3719231013206183e-10
238864.90000000087  3.074574483896697e-10
238865.00000000087  2.1546422979135116e-10
238865.10000000088  1.504701641064088e-10
238865.20000000088  1.0471518097077137e-10
238865.3000000009  7.261624634935515e-11
238865.4000000009  5.018288562474993e-11
238865.5000000009  3.456143704561043e-11
238865.6000000009  2.371755569718914e-11
238865.7000000009  1.621983103383684e-11
238865.80000000092  1.105102120924073e-11
238865.90000000093  7.506967270032305e-12
238866.00000000093  5.081352005831263e-12
238866.10000000094  3.4243996527294485e-12
238866.20000000094  2.3013535521698714e-12
238866.30000000095  1.541905492175033e-12
238866.40000000095  1.0310086118181516e-12
238866.50000000096  6.858125178865748e-13
238866.60000000097  4.556632848817799e-13
238866.70000000097  2.9917734956086406e-13
238866.80000000098  1.9792500971504978e-13
238866.90000000098  1.2886913758336505e-13
238867.000000001  8.285039321265231e-14
238867.100000001  5.523359547510154e-14
238867.200000001  3.683164884193957e-14
238867.300000001  2.300937218535637e-14
238867.400000001  1.379452108096757e-14
238867.50000000102  9.2148511043888e-15
238867.60000000102  4.6074255521944e-15
238867.70000000103  4.6074255521944e-15
238867.80000000104  4.6074255521944e-15
238867.90000000104  0.0
238868.00000000105  0.0
238868.10000000105  0.0
238868.20000000106  0.0
238868.30000000107  0.0
238868.40000000107  0.0
238868.50000000108  0.0
238868.60000000108  0.0
238868.7000000011  0.0
238868.8000000011  0.0
238868.9000000011  0.0
238869.0000000011  0.0
238869.1000000011  0.0
238869.20000000112  0.0
238869.30000000112  0.0
238869.40000000113  0.0
238869.50000000114  0.0
238869.60000000114  0.0
238869.70000000115  0.0
238869.80000000115  0.0
238869.90000000116  0.0
238870.00000000116  0.0
238870.10000000117  0.0
238870.20000000118  0.0
238870.30000000118  0.0
238870.4000000012  0.0
238870.5000000012  0.0
238870.6000000012  0.0
238870.7000000012  0.0
238870.8000000012  0.0
238870.90000000122  0.0
238871.00000000122  0.0
238871.10000000123  0.0
238871.20000000123  0.0
238871.30000000124  0.0
238871.40000000125  0.0
238871.50000000125  0.0
238871.60000000126  0.0
238871.70000000126  0.0
238871.80000000127  0.0
238871.90000000127  0.0
238872.00000000128  0.0
238872.1000000013  0.0
238872.2000000013  0.0
238872.3000000013  0.0
238872.4000000013  0.0
238872.5000000013  0.0
238872.60000000132  0.0
238872.70000000132  0.0
238872.80000000133  0.0
238872.90000000133  0.0
238873.00000000134  0.0
238873.10000000134  0.0
238873.20000000135  0.0
238873.30000000136  0.0
238873.40000000136  0.0
238873.50000000137  0.0
238873.60000000137  0.0
238873.70000000138  0.0
238873.80000000139  0.0
238873.9000000014  0.0
238874.0000000014  0.0
238874.1000000014  0.0
238874.2000000014  0.0
238874.3000000014  0.0
238874.40000000142  0.0
238874.50000000143  0.0
238874.60000000143  0.0
238874.70000000144  0.0
238874.80000000144  0.0
238874.90000000145  0.0
238875.00000000146  0.0
238875.10000000146  0.0
238875.20000000147  0.0
238875.30000000147  0.0
238875.40000000148  0.0
238875.50000000148  0.0
238875.6000000015  0.0
238875.7000000015  0.0
238875.8000000015  0.0
238875.9000000015  0.0
238876.0000000015  0.0
238876.10000000152  0.0
238876.20000000153  0.0
238876.30000000153  0.0
238876.40000000154  0.0
238876.50000000154  0.0
238876.60000000155  0.0
238876.70000000155  0.0
238876.80000000156  0.0
238876.90000000157  0.0
238877.00000000157  0.0
238877.10000000158  0.0
238877.20000000158  0.0
238877.3000000016  0.0
238877.4000000016  0.0
238877.5000000016  0.0
238877.6000000016  0.0
238877.7000000016  0.0
238877.80000000162  0.0
238877.90000000162  0.0
238878.00000000163  0.0
238878.10000000164  0.0
238878.20000000164  0.0
238878.30000000165  0.0
238878.40000000165  0.0
238878.50000000166  0.0
238878.60000000166  0.0
238878.70000000167  0.0
238878.80000000168  0.0
238878.90000000168  0.0
238879.0000000017  0.0
238879.1000000017  0.0
238879.2000000017  0.0
238879.3000000017  0.0
238879.4000000017  0.0
238879.50000000172  0.0
238879.60000000172  0.0
238879.70000000173  0.0
238879.80000000173  0.0
238879.90000000174  0.0
238880.00000000175  0.0
238880.10000000175  0.0
238880.20000000176  0.0
238880.30000000176  0.0
238880.40000000177  0.0
238880.50000000178  0.0
238880.60000000178  0.0
238880.7000000018  0.0
238880.8000000018  0.0
238880.9000000018  0.0
238881.0000000018  0.0
238881.1000000018  0.0
238881.20000000182  0.0
238881.30000000182  0.0
238881.40000000183  0.0
238881.50000000183  0.0
238881.60000000184  0.0
238881.70000000185  0.0
238881.80000000185  0.0
238881.90000000186  0.0
238882.00000000186  0.0
238882.10000000187  0.0
238882.20000000187  0.0
238882.30000000188  0.0
238882.4000000019  0.0
238882.5000000019  0.0
238882.6000000019  0.0
238882.7000000019  0.0
238882.8000000019  0.0
238882.90000000192  0.0
238883.00000000192  0.0
238883.10000000193  0.0
238883.20000000193  0.0
238883.30000000194  0.0
238883.40000000194  0.0
238883.50000000195  0.0
238883.60000000196  0.0
238883.70000000196  0.0
238883.80000000197  0.0
238883.90000000197  0.0
238884.00000000198  0.0
238884.10000000198  0.0
238884.200000002  0.0
238884.300000002  0.0
238884.400000002  0.0
238884.500000002  0.0
238884.600000002  0.0
238884.70000000202  0.0
238884.80000000203  0.0
238884.90000000203  0.0
238885.00000000204  0.0
238885.10000000204  0.0
238885.20000000205  0.0
238885.30000000205  0.0
238885.40000000206  0.0
238885.50000000207  0.0
238885.60000000207  0.0
238885.70000000208  0.0
238885.80000000208  0.0
238885.9000000021  0.0
238886.0000000021  0.0
238886.1000000021  0.0
238886.2000000021  0.0
238886.3000000021  0.0
238886.40000000212  0.0
238886.50000000212  0.0
238886.60000000213  0.0
238886.70000000214  0.0
238886.80000000214  0.0
238886.90000000215  0.0
238887.00000000215  0.0
238887.10000000216  0.0
238887.20000000217  0.0
238887.30000000217  0.0
238887.40000000218  0.0
238887.50000000218  0.0
238887.6000000022  0.0
238887.7000000022  0.0
238887.8000000022  0.0
238887.9000000022  0.0
238888.0000000022  0.0
238888.10000000222  0.0
238888.20000000222  0.0
238888.30000000223  0.0
238888.40000000224  0.0
238888.50000000224  0.0
238888.60000000225  0.0
238888.70000000225  0.0
238888.80000000226  0.0
238888.90000000226  0.0
238889.00000000227  0.0
238889.10000000228  0.0
238889.20000000228  0.0
238889.3000000023  0.0
238889.4000000023  0.0
238889.5000000023  0.0
238889.6000000023  0.0
238889.7000000023  0.0
238889.80000000232  0.0
238889.90000000232  0.0
238890.00000000233  0.0
238890.10000000233  0.0
238890.20000000234  0.0
238890.30000000235  0.0
238890.40000000235  0.0
238890.50000000236  0.0
238890.60000000236  0.0
238890.70000000237  0.0
238890.80000000237  0.0
238890.90000000238  0.0
238891.0000000024  0.0
238891.1000000024  0.0
238891.2000000024  0.0
238891.3000000024  0.0
238891.4000000024  0.0
238891.50000000242  0.0
238891.60000000242  0.0
238891.70000000243  0.0
238891.80000000243  0.0
238891.90000000244  0.0
238892.00000000244  0.0
238892.10000000245  0.0
238892.20000000246  4.6074255521944e-15
238892.30000000246  4.6074255521944e-15
238892.40000000247  9.2148511043888e-15
238892.50000000247  1.3822276656583199e-14
238892.60000000248  1.840194663316197e-14
238892.7000000025  3.222422328974517e-14
238892.8000000025  4.601874437071274e-14
238892.9000000025  7.366329768387914e-14
238893.0000000025  1.1046719095020308e-13
238893.1000000025  1.7030821197749901e-13
238893.20000000251  2.5779378631796135e-13
238893.30000000252  3.912703494535208e-13
238893.40000000253  5.892231147441862e-13
238893.50000000253  8.838207943284715e-13
238893.60000000254  1.325745069280515e-12
238893.70000000254  1.9747814494763816e-12
238893.80000000255  2.9368729670409266e-12
238893.90000000256  4.354683280638483e-12
238894.00000000256  6.4261373999841e-12
238894.10000000257  9.450495941365489e-12
238894.20000000257  1.3855805391926879e-11
238894.30000000258  2.024053147309246e-11
238894.40000000258  2.947009303255754e-11
238894.5000000026  4.274591791642024e-11
238894.6000000026  6.179887157564679e-11
238894.7000000026  8.902262260690463e-11
238894.8000000026  1.2779602376333798e-10
238894.9000000026  1.8281898217509251e-10
238895.00000000262  2.606190263598762e-10
238895.10000000263  3.702323725374157e-10
238895.20000000263  5.241155842661271e-10
238895.30000000264  7.393652357023939e-10
238895.40000000264  1.0393845784051337e-09
238895.50000000265  1.456051418324833e-09
238895.60000000265  2.0326414718052632e-09
238895.70000000266  2.8276581076625007e-09
238895.80000000267  3.919910007699201e-09
238895.90000000267  5.415126014263194e-09
238896.00000000268  7.45460024265121e-09
238896.10000000268  1.0226405722235654e-08
238896.2000000027  1.3979931823282499e-08
238896.3000000027  1.904451851775235e-08
238896.4000000027  2.5853430507538633e-08
238896.5000000027  3.497433606614031e-08
238896.6000000027  4.714806245420533e-08
238896.70000000272  6.33375664138569e-08
238896.80000000272  8.478949012347137e-08
238896.90000000273  1.1311124434310038e-07
238897.00000000274  1.50367048201705e-07
238897.10000000274  1.9919695359860157e-07
238897.20000000275  2.6296371549716646e-07
238897.30000000275  3.4593307332575485e-07
238897.40000000276  4.534939163913787e-07
238897.50000000276  5.924258085210354e-07
238897.60000000277  7.712223290823328e-07
238897.70000000278  1.0004798511598079e-06
238897.80000000278  1.2933623676214534e-06
238897.9000000028  1.6661542930895834e-06
238898.0000000028  2.138914061783348e-06
238898.1000000028  2.7362424563082133e-06
238898.2000000028  3.488180434996213e-06
238898.3000000028  4.431251787451185e-06
238898.40000000282  5.609666412859093e-06
238898.50000000282  7.0766996886073574e-06
238898.60000000283  8.896263075208743e-06
238898.70000000283  1.1144679652547174e-05
238898.80000000284  1.391267634542892e-05
238898.90000000285  1.730760179724511e-05
238899.00000000285  2.145587481328093e-05
238899.10000000286  2.6505663300618876e-05
238899.20000000286  3.2629787445309644e-05
238899.30000000287  4.002883303136362e-05
238899.40000000288  4.89344519732926e-05
238899.50000000288  5.961281668376284e-05
238899.6000000029  7.236818298381187e-05
238899.7000000029  8.754650337927661e-05
238899.8000000029  0.00010553901824117418
238899.9000000029  0.00012678573743110655
238900.0000000029  0.00015177870941152083
238900.10000000292  0.00018106495916547782
238900.20000000292  0.00021524896107227853
238900.30000000293  0.00025499449867863455
238900.40000000293  0.00030102575077001203
238900.50000000294  0.0003541274332760913
238900.60000000295  0.0004151438196387247
238900.70000000295  0.0004849764599133555
238900.80000000296  0.0005645804210746286
238900.90000000296  0.0006549588793645922
238901.00000000297  0.0007571559100373049
238901.10000000297  0.0008722473417910603
238901.20000000298  0.0010013295725455618
238901.300000003  0.0011455062802130933
238901.400000003  0.0013058730072773028
238901.500000003  0.0014834996502036402
238901.600000003  0.0016794109438844906
238901.700000003  0.0018945650964675986
238901.80000000302  0.0021298307991727827
238901.90000000302  0.0023859629080896505
238902.00000000303  0.0026635771677732956
238902.10000000303  0.0029631244178584537
238902.20000000304  0.003284864791014447
238902.30000000304  0.003628842470750543
238902.40000000305  0.003994861628127844
238902.50000000306  0.004382464194342184
238902.60000000306  0.004790910149004013
238902.70000000307  0.005219161009243606
238902.80000000307  0.005665867190624979
238902.90000000308  0.0061293598758361545
238903.00000000309  0.006607647970182068
238903.1000000031  0.007098420644312153
238903.2000000031  0.007599055864686816
238903.3000000031  0.008106635192601797
238903.4000000031  0.008617964995652844
238903.5000000031  0.00912960406412014
238903.60000000312  0.009637897463212086
238903.70000000313  0.010139016284385988
238903.80000000313  0.010629002790713687
238903.90000000314  0.01110382028721063
238904.00000000314  0.011559406893403096
238904.10000000315  0.011991732256883436
238904.20000000315  0.012396856129114009
238904.30000000316  0.012770987632524933
238904.40000000317  0.013110543985150575
238904.50000000317  0.013412207418897398
238904.60000000318  0.01367297903195952
238904.70000000318  0.01389022835612344
238904.8000000032  0.014061737495003557
238904.9000000032  0.014185738798665082
238905.0000000032  0.014260945180392448
238905.1000000032  0.014286572349045235
238905.2000000032  0.014262352420292529
238905.30000000322  0.014188538576674653
238905.40000000322  0.014065900663154302
238905.50000000323  0.013895711825260865
238905.60000000324  0.013679726513913915
238905.70000000324  0.013420150387957519
238905.80000000325  0.013119602835895777
238905.90000000325  0.012781073006662924
238906.00000000326  0.012407870380481328
238906.10000000327  0.012003571021040382
238906.20000000327  0.011571960726683705
238906.30000000328  0.011116976339373419
238906.40000000328  0.010642646475798101
238906.5000000033  0.010153032915578952
238906.6000000033  0.009652173819758997
238906.7000000033  0.009144029861388514
238906.8000000033  0.008632434232887842
238906.9000000033  0.008121047357286276
238907.00000000332  0.0076133169767182984
