#  Species 2: 154 CH3{13}CN
#  1e+15 20.0 5.0 0.0 0.7   
# N(cm^-2) T(K) dv(km/s) vlsr(km/s) size(") 
238850.0  3.7894219873102486e-08
238850.1  4.469657721717368e-08
238850.2  5.253613169498017e-08
238850.30000000002  6.153530279773278e-08
238850.40000000002  7.182458269805458e-08
238850.50000000003  8.354190128567751e-08
238850.60000000003  9.683182064512685e-08
238850.70000000004  1.118444167835797e-07
238850.80000000005  1.2873392191137256e-07
238850.90000000005  1.4765704917096834e-07
238851.00000000006  1.6877101366441494e-07
238851.10000000006  1.9223125885536874e-07
238851.20000000007  2.1818889303637512e-07
238851.30000000008  2.467878404965873e-07
238851.40000000008  2.7816172099015546e-07
238851.5000000001  3.1243051773488517e-07
238851.6000000001  3.496970886474049e-07
238851.7000000001  3.9004352586635704e-07
238851.8000000001  4.3352746001423803e-07
238851.9000000001  4.801784104224716e-07
238852.00000000012  5.299942228143006e-07
238852.10000000012  5.829376772958916e-07
238852.20000000013  6.389334092082866e-07
238852.30000000013  6.978652213329717e-07
238852.40000000014  7.595738331644952e-07
238852.50000000015  8.238552654249442e-07
238852.60000000015  8.904598227943428e-07
238852.70000000016  9.590919004542897e-07
238852.80000000016  1.0294105133590303e-06
238852.90000000017  1.101030778133394e-06
238853.00000000017  1.1735262416545655e-06
238853.10000000018  1.2464321257621425e-06
238853.2000000002  1.3192495245395452e-06
238853.3000000002  1.391450439341968e-06
238853.4000000002  1.4624836605359182e-06
238853.5000000002  1.531781381181041e-06
238853.6000000002  1.598766482646674e-06
238853.70000000022  1.662860307977132e-06
238853.80000000022  1.7234908544216943e-06
238853.90000000023  1.7801011588103322e-06
238854.00000000023  1.8321577616997597e-06
238854.10000000024  1.8791590284950033e-06
238854.20000000024  1.92064317158791e-06
238854.30000000025  1.956195803065608e-06
238854.40000000026  1.9854568016064444e-06
238854.50000000026  2.0081264017202116e-06
238854.60000000027  2.0239702933633197e-06
238854.70000000027  2.0328236537414668e-06
238854.80000000028  2.0345940057175937e-06
238854.90000000029  2.029262828745493e-06
238855.0000000003  2.016885871980456e-06
238855.1000000003  1.997592188024422e-06
238855.2000000003  1.971581900850339e-06
238855.3000000003  1.939122735661325e-06
238855.4000000003  1.9005454396925359e-06
238855.50000000032  1.8562381764175573e-06
238855.60000000033  1.8066400271354865e-06
238855.70000000033  1.75223374210276e-06
238855.80000000034  1.6935379533455919e-06
238855.90000000034  1.631098968390976e-06
238856.00000000035  1.5654823525557138e-06
238856.10000000036  1.4972644833410875e-06
238856.20000000036  1.4270242522651522e-06
238856.30000000037  1.3553350472761405e-06
238856.40000000037  1.2827572185847291e-06
238856.50000000038  1.2098311149011387e-06
238856.60000000038  1.1370708242197658e-06
238856.7000000004  1.0649587012800943e-06
238856.8000000004  9.939407603909434e-07
238856.9000000004  9.244229520199987e-07
238857.0000000004  8.567683642546342e-07
238857.1000000004  7.912953404465295e-07
238857.20000000042  7.282764710458967e-07
238857.30000000042  6.679384325081195e-07
238857.40000000043  6.104626129599389e-07
238857.50000000044  5.5598643325383e-07
238857.60000000044  5.046052889146058e-07
238857.70000000045  4.5637504478279745e-07
238857.80000000045  4.1131492051205143e-07
238857.90000000046  3.6941074002538876e-07
238858.00000000047  3.306184293005998e-07
238858.10000000047  2.9486761998764877e-07
238858.20000000048  2.620653453411226e-07
238858.30000000048  2.3209970359538978e-07
238858.4000000005  2.048434434298585e-07
238858.5000000005  1.801573651094568e-07
238858.6000000005  1.5789357910023227e-07
238858.7000000005  1.3789845623723984e-07
238858.8000000005  1.2001535243388872e-07
238858.90000000052  1.04087052588131e-07
238859.00000000052  8.99578555535463e-08
238859.10000000053  7.747541982960904e-08
238859.20000000054  6.64922914228594e-08
238859.30000000054  5.6867105330260515e-08
238859.40000000055  4.84655841570536e-08
238859.50000000055  4.116121937736139e-08
238859.60000000056  3.483577765139856e-08
238859.70000000056  2.937955853599128e-08
238859.80000000057  2.4691504951768195e-08
238859.90000000058  2.0679129603129454e-08
238860.00000000058  1.7258358575578114e-08
238860.1000000006  1.4353213589890501e-08
238860.2000000006  1.1895462420641323e-08
238860.3000000006  9.824172336747594e-09
238860.4000000006  8.085245334354951e-09
238860.5000000006  6.63090721220172e-09
238860.60000000062  5.419196758005285e-09
238860.70000000062  4.413464038677262e-09
238860.80000000063  3.58184570892206e-09
238860.90000000063  2.8967863940909666e-09
238861.00000000064  2.334578419471711e-09
238861.10000000065  1.8749199970358177e-09
238861.20000000065  1.5005147679936215e-09
238861.30000000066  1.1966851676259438e-09
238861.40000000066  9.510457976702469e-10
238861.50000000067  7.531902324053874e-10
238861.60000000068  5.944196801443979e-10
238861.70000000068  4.6748049875589e-10
238861.8000000007  3.66366353921066e-10
238861.9000000007  2.8612029412400375e-10
238862.0000000007  2.226736295352083e-10
238862.1000000007  1.726895015874419e-10
238862.2000000007  1.3345699545475043e-10
238862.30000000072  1.027807283726645e-10
238862.40000000072  7.88794307648999e-11
238862.50000000073  6.032177535253425e-11
238862.60000000073  4.597086600277578e-11
238862.70000000074  3.491540390143655e-11
238862.80000000075  2.6423613297410498e-11
238862.90000000075  1.9924728533737834e-11
238863.00000000076  1.4976908602193362e-11
238863.10000000076  1.1216583217787957e-11
238863.20000000077  8.367556647570495e-12
238863.30000000077  6.222744541872771e-12
238863.40000000078  4.611838688717285e-12
238863.5000000008  3.4059421949450552e-12
238863.6000000008  2.5084379018380787e-12
238863.7000000008  1.836447660608087e-12
238863.8000000008  1.3439804824599833e-12
238863.9000000008  9.803546863196289e-13
238864.00000000081  7.087941344963156e-13
238864.10000000082  5.155043059090758e-13
238864.20000000083  3.6820546611693317e-13
238864.30000000083  2.669531262711189e-13
238864.40000000084  1.8871015861066098e-13
238864.50000000084  1.3347656313555945e-13
238864.60000000085  9.664491429361988e-14
238864.70000000086  6.902811655606911e-14
238864.80000000086  4.601874437071274e-14
238864.90000000087  3.222422328974517e-14
238865.00000000087  2.300937218535637e-14
238865.10000000088  1.840194663316197e-14
238865.20000000088  1.379452108096757e-14
238865.3000000009  9.2148511043888e-15
238865.4000000009  4.6074255521944e-15
238865.5000000009  4.6074255521944e-15
238865.6000000009  4.6074255521944e-15
238865.7000000009  0.0
238865.80000000092  0.0
238865.90000000093  0.0
238866.00000000093  0.0
238866.10000000094  0.0
238866.20000000094  0.0
238866.30000000095  0.0
238866.40000000095  0.0
238866.50000000096  0.0
238866.60000000097  0.0
238866.70000000097  0.0
238866.80000000098  0.0
238866.90000000098  0.0
238867.000000001  0.0
238867.100000001  0.0
238867.200000001  0.0
238867.300000001  0.0
238867.400000001  0.0
238867.50000000102  0.0
238867.60000000102  0.0
238867.70000000103  0.0
238867.80000000104  0.0
238867.90000000104  0.0
238868.00000000105  0.0
238868.10000000105  0.0
238868.20000000106  0.0
238868.30000000107  0.0
238868.40000000107  0.0
238868.50000000108  0.0
238868.60000000108  0.0
238868.7000000011  0.0
238868.8000000011  0.0
238868.9000000011  0.0
238869.0000000011  0.0
238869.1000000011  0.0
238869.20000000112  0.0
238869.30000000112  0.0
238869.40000000113  0.0
238869.50000000114  0.0
238869.60000000114  0.0
238869.70000000115  0.0
238869.80000000115  0.0
238869.90000000116  0.0
238870.00000000116  0.0
238870.10000000117  0.0
238870.20000000118  0.0
238870.30000000118  0.0
238870.4000000012  0.0
238870.5000000012  0.0
238870.6000000012  0.0
238870.7000000012  0.0
238870.8000000012  0.0
238870.90000000122  0.0
238871.00000000122  0.0
238871.10000000123  0.0
238871.20000000123  0.0
238871.30000000124  0.0
238871.40000000125  0.0
238871.50000000125  0.0
238871.60000000126  0.0
238871.70000000126  0.0
238871.80000000127  0.0
238871.90000000127  0.0
238872.00000000128  0.0
238872.1000000013  0.0
238872.2000000013  0.0
238872.3000000013  0.0
238872.4000000013  0.0
238872.5000000013  0.0
238872.60000000132  0.0
238872.70000000132  0.0
238872.80000000133  0.0
238872.90000000133  0.0
238873.00000000134  0.0
238873.10000000134  0.0
238873.20000000135  0.0
238873.30000000136  0.0
238873.40000000136  0.0
238873.50000000137  0.0
238873.60000000137  0.0
238873.70000000138  0.0
238873.80000000139  0.0
238873.9000000014  0.0
238874.0000000014  0.0
238874.1000000014  0.0
238874.2000000014  0.0
238874.3000000014  0.0
238874.40000000142  0.0
238874.50000000143  0.0
238874.60000000143  0.0
238874.70000000144  0.0
238874.80000000144  0.0
238874.90000000145  0.0
238875.00000000146  0.0
238875.10000000146  0.0
238875.20000000147  0.0
238875.30000000147  0.0
238875.40000000148  0.0
238875.50000000148  0.0
238875.6000000015  0.0
238875.7000000015  0.0
238875.8000000015  0.0
238875.9000000015  0.0
238876.0000000015  0.0
238876.10000000152  0.0
238876.20000000153  0.0
238876.30000000153  0.0
238876.40000000154  0.0
238876.50000000154  0.0
238876.60000000155  0.0
238876.70000000155  0.0
238876.80000000156  0.0
238876.90000000157  0.0
238877.00000000157  0.0
238877.10000000158  0.0
238877.20000000158  0.0
238877.3000000016  0.0
238877.4000000016  0.0
238877.5000000016  0.0
238877.6000000016  0.0
238877.7000000016  0.0
238877.80000000162  0.0
238877.90000000162  0.0
238878.00000000163  0.0
238878.10000000164  0.0
238878.20000000164  0.0
238878.30000000165  0.0
238878.40000000165  0.0
238878.50000000166  0.0
238878.60000000166  0.0
238878.70000000167  0.0
238878.80000000168  0.0
238878.90000000168  0.0
238879.0000000017  0.0
238879.1000000017  0.0
238879.2000000017  0.0
238879.3000000017  0.0
238879.4000000017  0.0
238879.50000000172  0.0
238879.60000000172  0.0
238879.70000000173  0.0
238879.80000000173  0.0
238879.90000000174  0.0
238880.00000000175  0.0
238880.10000000175  0.0
238880.20000000176  0.0
238880.30000000176  0.0
238880.40000000177  0.0
238880.50000000178  0.0
238880.60000000178  0.0
238880.7000000018  0.0
238880.8000000018  0.0
238880.9000000018  0.0
238881.0000000018  0.0
238881.1000000018  0.0
238881.20000000182  0.0
238881.30000000182  0.0
238881.40000000183  0.0
238881.50000000183  0.0
238881.60000000184  0.0
238881.70000000185  0.0
238881.80000000185  0.0
238881.90000000186  0.0
238882.00000000186  0.0
238882.10000000187  0.0
238882.20000000187  0.0
238882.30000000188  0.0
238882.4000000019  0.0
238882.5000000019  0.0
238882.6000000019  0.0
238882.7000000019  0.0
238882.8000000019  0.0
238882.90000000192  0.0
238883.00000000192  0.0
238883.10000000193  0.0
238883.20000000193  0.0
238883.30000000194  0.0
238883.40000000194  0.0
238883.50000000195  0.0
238883.60000000196  0.0
238883.70000000196  0.0
238883.80000000197  0.0
238883.90000000197  0.0
238884.00000000198  0.0
238884.10000000198  0.0
238884.200000002  0.0
238884.300000002  0.0
238884.400000002  0.0
238884.500000002  0.0
238884.600000002  0.0
238884.70000000202  0.0
238884.80000000203  0.0
238884.90000000203  0.0
238885.00000000204  0.0
238885.10000000204  0.0
238885.20000000205  0.0
238885.30000000205  0.0
238885.40000000206  0.0
238885.50000000207  0.0
238885.60000000207  0.0
238885.70000000208  0.0
238885.80000000208  0.0
238885.9000000021  0.0
238886.0000000021  0.0
238886.1000000021  0.0
238886.2000000021  0.0
238886.3000000021  0.0
238886.40000000212  0.0
238886.50000000212  0.0
238886.60000000213  0.0
238886.70000000214  0.0
238886.80000000214  0.0
238886.90000000215  0.0
238887.00000000215  0.0
238887.10000000216  0.0
238887.20000000217  0.0
238887.30000000217  0.0
238887.40000000218  0.0
238887.50000000218  0.0
238887.6000000022  0.0
238887.7000000022  0.0
238887.8000000022  0.0
238887.9000000022  0.0
238888.0000000022  0.0
238888.10000000222  0.0
238888.20000000222  0.0
238888.30000000223  0.0
238888.40000000224  0.0
238888.50000000224  0.0
238888.60000000225  0.0
238888.70000000225  0.0
238888.80000000226  0.0
238888.90000000226  0.0
238889.00000000227  0.0
238889.10000000228  0.0
238889.20000000228  0.0
238889.3000000023  0.0
238889.4000000023  0.0
238889.5000000023  0.0
238889.6000000023  0.0
238889.7000000023  0.0
238889.80000000232  0.0
238889.90000000232  0.0
238890.00000000233  0.0
238890.10000000233  0.0
238890.20000000234  0.0
238890.30000000235  0.0
238890.40000000235  0.0
238890.50000000236  0.0
238890.60000000236  0.0
238890.70000000237  0.0
238890.80000000237  0.0
238890.90000000238  0.0
238891.0000000024  0.0
238891.1000000024  0.0
238891.2000000024  0.0
238891.3000000024  0.0
238891.4000000024  0.0
238891.50000000242  0.0
238891.60000000242  0.0
238891.70000000243  0.0
238891.80000000243  0.0
238891.90000000244  0.0
238892.00000000244  0.0
238892.10000000245  0.0
238892.20000000246  0.0
238892.30000000246  0.0
238892.40000000247  0.0
238892.50000000247  0.0
238892.60000000248  0.0
238892.7000000025  0.0
238892.8000000025  0.0
238892.9000000025  0.0
238893.0000000025  0.0
238893.1000000025  0.0
238893.20000000251  0.0
238893.30000000252  0.0
238893.40000000253  4.6074255521944e-15
238893.50000000253  4.6074255521944e-15
238893.60000000254  4.6074255521944e-15
238893.70000000254  9.2148511043888e-15
238893.80000000255  9.2148511043888e-15
238893.90000000256  1.840194663316197e-14
238894.00000000256  2.300937218535637e-14
238894.10000000257  3.683164884193957e-14
238894.20000000257  5.523359547510154e-14
238894.30000000258  7.824296766045791e-14
238894.40000000258  1.1507461650239748e-13
238894.5000000026  1.6572854200092024e-13
238894.6000000026  2.3936408410918375e-13
238894.7000000026  3.4985903063500245e-13
238894.8000000026  4.971578704271451e-13
238894.9000000026  7.135125823509725e-13
238895.00000000262  1.0173251130396466e-12
238895.10000000263  1.445427111335107e-12
238895.20000000263  2.0484725027358763e-12
238895.30000000264  2.890854222670214e-12
238895.40000000264  4.0600856010541975e-12
238895.50000000265  5.689670956599002e-12
238895.60000000265  7.940675894602123e-12
238895.70000000266  1.1047884829196164e-11
238895.80000000267  1.5315138046645416e-11
238895.90000000267  2.115674302416437e-11
238896.00000000268  2.912506347207966e-11
238896.10000000268  3.995662134492761e-11
238896.2000000027  5.461814334140058e-11
238896.3000000027  7.440778548861715e-11
238896.4000000027  1.0101031122644599e-10
238896.5000000027  1.366445290251761e-10
238896.6000000027  1.8421059122530892e-10
238896.70000000272  2.4746474314163436e-10
238896.80000000272  3.312773666497293e-10
238896.90000000273  4.419319910020647e-10
238897.00000000274  5.874936370720008e-10
238897.10000000274  7.78273834267651e-10
238897.20000000275  1.0274150974431961e-09
238897.30000000275  1.3515815411313525e-09
238897.40000000276  1.771828850305468e-09
238897.50000000276  2.3146400907059217e-09
238897.60000000277  3.0132100703461617e-09
238897.70000000278  3.9089321224317075e-09
238897.80000000278  5.053244156449921e-09
238897.9000000028  6.5097599810659545e-09
238898.0000000028  8.356861036507013e-09
238898.1000000028  1.0690660967593857e-08
238898.2000000028  1.3628522588238212e-08
238898.3000000028  1.731315957265167e-08
238898.40000000282  2.1917295034423745e-08
238898.50000000282  2.7649079747948946e-08
238898.60000000283  3.4758219302766236e-08
238898.70000000283  4.354291602282068e-08
238898.80000000284  5.4357644219127366e-08
238898.90000000285  6.762182286346174e-08
238899.00000000285  8.382937255468903e-08
238899.10000000286  1.0355920188054313e-07
238899.20000000286  1.2748652741811917e-07
238899.30000000287  1.5639505449027702e-07
238899.40000000288  1.9118986668842375e-07
238899.50000000288  2.3291090947563653e-07
238899.6000000029  2.8274694799379496e-07
238899.7000000029  3.42049644386222e-07
238899.8000000029  4.123476122219749e-07
238899.9000000029  4.953600108992262e-07
238900.0000000029  5.930093385508872e-07
238900.10000000292  7.074328721434764e-07
238900.20000000292  8.409923947794162e-07
238900.30000000293  9.962814004893517e-07
238900.40000000293  1.1761293805812034e-06
238900.50000000294  1.3836023765034788e-06
238900.60000000295  1.621999150408504e-06
238900.70000000295  1.8948422918496632e-06
238900.80000000296  2.2058635243127345e-06
238900.90000000296  2.558982589856429e-06
238901.00000000297  2.9582791089555194e-06
238901.10000000297  3.4079568355105394e-06
238901.20000000298  3.912299970765254e-06
238901.300000003  4.475621287775011e-06
238901.400000003  5.1022018728030805e-06
238901.500000003  5.796222755510838e-06
238901.600000003  6.561688662337639e-06
238901.700000003  7.402344547130513e-06
238901.80000000302  8.321585777820717e-06
238901.90000000302  9.322363116598398e-06
238902.00000000303  1.0407083975594311e-05
238902.10000000303  1.1577511619037528e-05
238902.20000000304  1.2834664328553735e-05
238902.30000000304  1.4178716759211119e-05
238902.40000000305  1.56089058758746e-05
238902.50000000306  1.7123444056743597e-05
238902.60000000306  1.8719442029663247e-05
238902.70000000307  2.039284426957888e-05
238902.80000000307  2.213837953674025e-05
238902.90000000308  2.39495290318692e-05
238903.00000000309  2.5818514392372816e-05
238903.1000000031  2.7736307517733927e-05
238903.2000000031  2.9692663831321076e-05
238903.3000000031  3.1676179995582254e-05
238903.4000000031  3.367437670245832e-05
238903.5000000031  3.567380654839747e-05
238903.60000000312  3.7660186220062064e-05
238903.70000000313  3.961855182701979e-05
238903.80000000313  4.153343529539333e-05
238903.90000000314  4.338905928635839e-05
238904.00000000314  4.516954734795631e-05
238904.10000000315  4.685914566382454e-05
238904.20000000315  4.844245202501041e-05
238904.30000000316  4.990464760154523e-05
238904.40000000317  5.123172658783037e-05
238904.50000000317  5.241071877296055e-05
238904.60000000318  5.3429900211870995e-05
238904.70000000318  5.427898707105472e-05
238904.8000000032  5.494930830837741e-05
238904.9000000032  5.5433953052380636e-05
238905.0000000032  5.572788919180893e-05
238905.1000000032  5.5828050371964366e-05
238905.2000000032  5.573338923364757e-05
238905.30000000322  5.544489566139399e-05
238905.40000000322  5.496557952031078e-05
238905.50000000323  5.430041842477418e-05
238905.60000000324  5.345627163902411e-05
238905.70000000324  5.244176237467757e-05
238905.80000000325  5.1267131145671385e-05
238905.90000000325  4.9944063789664206e-05
238906.00000000326  4.848549811040104e-05
238906.10000000327  4.690541368002066e-05
238906.20000000327  4.521860947814815e-05
238906.30000000328  4.3440474408934504e-05
238906.40000000328  4.158675552951019e-05
238906.5000000033  3.967332891086084e-05
238906.6000000033  3.771597764298806e-05
238906.7000000033  3.5730181297433106e-05
238906.8000000033  3.3730920521168883e-05
238906.9000000033  3.17325000898927e-05
238907.00000000332  2.9748392962242187e-05
238907.10000000332  2.779110739722923e-05
238907.20000000333  2.5872078387112474e-05
238907.30000000334  2.400158416082654e-05
238907.40000000334  2.218868775794025e-05
238907.50000000335  2.044120309804831e-05
238907.60000000335  1.8765684509369773e-05
238907.70000000336  1.7167438124382484e-05
238907.80000000336  1.565055321797737e-05
238907.90000000337  1.4217951204653634e-05
238908.00000000338  1.2871449814128022e-05
