#  Species 2: 154 CH3{13}CN
#  1e+15 270.0 5.0 0.0 0.7   
# N(cm^-2) T(K) dv(km/s) vlsr(km/s) size(") 
238850.0  0.00027127615520777804
238850.1  0.0003199725171272316
238850.2  0.0003760938043228246
238850.30000000002  0.0004405164398424699
238850.40000000002  0.0005141744567841722
238850.50000000003  0.000598055247708007
238850.60000000003  0.0006931935898906449
238850.70000000004  0.0008006637935311367
238850.80000000005  0.0009215698443577336
238850.90000000005  0.0010570334439891915
238851.00000000006  0.0012081798914764519
238851.10000000006  0.0013761217972910467
238851.20000000007  0.0015619406763167643
238851.30000000008  0.001766666528609545
238851.40000000008  0.001991255584195578
238851.5000000001  0.0022365664601910196
238851.6000000001  0.002503335052542771
238851.7000000001  0.0027921485590667594
238851.8000000001  0.00310341910240422
238851.9000000001  0.0034373574885630254
238852.00000000012  0.003793947695847788
238852.10000000012  0.004172922737558704
238852.20000000013  0.004573742576829409
238852.30000000013  0.004995574790817359
238852.40000000014  0.0054372786820302554
238852.50000000015  0.005897393514608801
238852.60000000015  0.0063741315118326924
238852.70000000016  0.006865376187390776
238852.80000000016  0.0073686864967406895
238852.90000000017  0.007881307187423137
238853.00000000017  0.008400185600314414
238853.10000000018  0.008921995029505664
238853.2000000002  0.009443164590994924
238853.3000000002  0.009959915383198653
238853.4000000002  0.010468302550365988
238853.5000000002  0.010964262688864163
238853.6000000002  0.011443665870834285
238853.70000000022  0.011902371406569467
238853.80000000022  0.012336286330400431
238853.90000000023  0.012741425481521323
238854.00000000023  0.013113971964267362
238854.10000000024  0.013450336716957695
238854.20000000024  0.013747215896627502
238854.30000000025  0.014001644801071772
238854.40000000026  0.014211047100346319
238854.50000000026  0.014373278235909587
238854.60000000027  0.01448666196626136
238854.70000000027  0.014550019188720509
238854.80000000028  0.014562688344920277
238854.90000000029  0.014524536916488306
238855.0000000003  0.01443596373177683
238855.1000000003  0.014297892027523934
238855.2000000003  0.014111753434175589
238855.3000000003  0.013879463272969877
238855.4000000003  0.013603387760516977
238855.50000000032  0.013286303905551633
238855.60000000033  0.012931353047474808
238855.70000000033  0.012541989122479669
238855.80000000034  0.012121922846605238
238855.90000000034  0.011675063073593395
238856.00000000035  0.011205456617718823
238856.10000000036  0.010717227827758219
238856.20000000036  0.010214519159222363
238856.30000000037  0.009701433920409674
238856.40000000037  0.009181982267096656
238856.50000000038  0.008660031395022555
238856.60000000038  0.0081392607338307
238856.7000000004  0.007623122786005798
238856.8000000004  0.007114810085462497
238856.9000000004  0.006617228578090079
238857.0000000004  0.0061329775565592826
238857.1000000004  0.005664336118624935
238857.20000000042  0.005213255966976332
238857.30000000042  0.004781360232631343
238857.40000000043  0.00436994788656575
238857.50000000044  0.003980003207186472
238857.60000000044  0.0036122096963870365
238857.70000000045  0.003266967784282593
238857.80000000045  0.002944415632093522
238857.90000000046  0.002644452333389946
238858.00000000047  0.0023667628235797544
238858.10000000047  0.002110843835146342
238858.20000000048  0.001876030277979751
238858.30000000048  0.0016615214786103172
238858.4000000005  0.0014664067754585897
238858.5000000005  0.001289690037144603
238858.6000000005  0.0011303127444006467
238858.7000000005  0.0009871753505207026
238858.8000000005  0.000859156708689135
238858.90000000052  0.0007451314243325513
238859.00000000052  0.0006439850557778681
238859.10000000053  0.0005546271452602225
238859.20000000054  0.0004760021139962045
238859.30000000054  0.00040709809904862504
238859.40000000055  0.0003469538455115051
238859.50000000055  0.0002946637958921028
238859.60000000056  0.00024938153865231016
238859.70000000056  0.00021032179152882802
238859.80000000057  0.0001767611017590709
238859.90000000058  0.0001480374466809875
238860.00000000058  0.00012354891437746374
238860.1000000006  0.00010275163613007732
238860.2000000006  8.515713179710338e-05
238860.3000000006  7.032921570865325e-05
238860.4000000006  5.788059603223372e-05
238860.5000000006  4.7469284783885346e-05
238860.60000000062  3.8794919649531856e-05
238860.70000000062  3.1595083052865514e-05
238860.80000000063  2.5641688696759202e-05
238860.90000000063  2.073749163217231e-05
238861.00000000064  1.671276488535156e-05
238861.10000000065  1.3422173963772988e-05
238861.20000000065  1.0741870289154853e-05
238861.30000000066  8.566815736965605e-06
238861.40000000066  6.8083430325716066e-06
238861.50000000067  5.391950730182504e-06
238861.60000000068  4.255326451207964e-06
238861.70000000068  3.34658865297488e-06
238861.8000000007  2.6227341284879024e-06
238861.9000000007  2.048276983884767e-06
238862.0000000007  1.5940633807387528e-06
238862.1000000007  1.2362461971338057e-06
238862.2000000007  9.554035171610575e-07
238862.30000000072  7.357854341361048e-07
238862.40000000072  5.646743012344135e-07
238862.50000000073  4.3184444764587937e-07
238862.60000000073  3.29108532370892e-07
238862.70000000074  2.499386528576064e-07
238862.80000000075  1.891516770158308e-07
238862.90000000075  1.4264923556273068e-07
238863.00000000076  1.0720404772235348e-07
238863.10000000076  8.028518483360614e-08
238863.20000000077  5.991590154574844e-08
238863.30000000077  4.455857607887914e-08
238863.40000000078  3.302196827092985e-08
238863.5000000008  2.438692928152797e-08
238863.6000000008  1.7947079128388665e-08
238863.7000000008  1.3161726541977004e-08
238863.8000000008  9.61865731508027e-09
238863.9000000008  7.004847840663686e-09
238864.00000000081  5.083525878024631e-09
238864.10000000082  3.676326271184749e-09
238864.20000000083  2.6493910953995226e-09
238864.30000000083  1.9026547282141593e-09
238864.40000000084  1.3616191507637154e-09
238864.50000000084  9.710344472946275e-10
238864.60000000085  6.900753302119256e-10
238864.70000000086  4.8870038571458e-10
238864.80000000086  3.4488148448197364e-10
238864.90000000087  2.4253696273568437e-10
238865.00000000087  1.6996695717530486e-10
238865.10000000088  1.1869799587671537e-10
238865.20000000088  8.260397921233675e-11
238865.3000000009  5.728476026867213e-11
238865.4000000009  3.958752770039098e-11
238865.5000000009  2.7261609636397566e-11
238865.6000000009  1.8709866989041757e-11
238865.7000000009  1.2795431381107392e-11
238865.80000000092  8.717471189356729e-12
238865.90000000093  5.9190430334865596e-12
238866.00000000093  4.008932075194593e-12
238866.10000000094  2.7017832415765497e-12
238866.20000000094  1.8180734695505407e-12
238866.30000000095  1.2151113448766182e-12
238866.40000000095  8.100742299177455e-13
238866.50000000096  5.385136780944322e-13
238866.60000000097  3.5901837058816e-13
238866.70000000097  2.347289029813737e-13
238866.80000000098  1.5648593532091581e-13
238866.90000000098  1.0125233984581428e-13
238867.000000001  6.444844657949034e-14
238867.100000001  4.141131881851834e-14
238867.200000001  2.761679773755077e-14
238867.300000001  1.840194663316197e-14
238867.400000001  1.379452108096757e-14
238867.50000000102  9.2148511043888e-15
238867.60000000102  4.6074255521944e-15
238867.70000000103  4.6074255521944e-15
238867.80000000104  0.0
238867.90000000104  0.0
238868.00000000105  0.0
238868.10000000105  0.0
238868.20000000106  0.0
238868.30000000107  0.0
238868.40000000107  0.0
238868.50000000108  0.0
238868.60000000108  0.0
238868.7000000011  0.0
238868.8000000011  0.0
238868.9000000011  0.0
238869.0000000011  0.0
238869.1000000011  0.0
238869.20000000112  0.0
238869.30000000112  0.0
238869.40000000113  0.0
238869.50000000114  0.0
238869.60000000114  0.0
238869.70000000115  0.0
238869.80000000115  0.0
238869.90000000116  0.0
238870.00000000116  0.0
238870.10000000117  0.0
238870.20000000118  0.0
238870.30000000118  0.0
238870.4000000012  0.0
238870.5000000012  0.0
238870.6000000012  0.0
238870.7000000012  0.0
238870.8000000012  0.0
238870.90000000122  0.0
238871.00000000122  0.0
238871.10000000123  0.0
238871.20000000123  0.0
238871.30000000124  0.0
238871.40000000125  0.0
238871.50000000125  0.0
238871.60000000126  0.0
238871.70000000126  0.0
238871.80000000127  0.0
238871.90000000127  0.0
238872.00000000128  0.0
238872.1000000013  0.0
238872.2000000013  0.0
238872.3000000013  0.0
238872.4000000013  0.0
238872.5000000013  0.0
238872.60000000132  0.0
238872.70000000132  0.0
238872.80000000133  0.0
238872.90000000133  0.0
238873.00000000134  0.0
238873.10000000134  0.0
238873.20000000135  0.0
238873.30000000136  0.0
238873.40000000136  0.0
238873.50000000137  0.0
238873.60000000137  0.0
238873.70000000138  0.0
238873.80000000139  0.0
238873.9000000014  0.0
238874.0000000014  0.0
238874.1000000014  0.0
238874.2000000014  0.0
238874.3000000014  0.0
238874.40000000142  0.0
238874.50000000143  0.0
238874.60000000143  0.0
238874.70000000144  0.0
238874.80000000144  0.0
238874.90000000145  0.0
238875.00000000146  0.0
238875.10000000146  0.0
238875.20000000147  0.0
238875.30000000147  0.0
238875.40000000148  0.0
238875.50000000148  0.0
238875.6000000015  0.0
238875.7000000015  0.0
238875.8000000015  0.0
238875.9000000015  0.0
238876.0000000015  0.0
238876.10000000152  0.0
238876.20000000153  0.0
238876.30000000153  0.0
238876.40000000154  0.0
238876.50000000154  0.0
238876.60000000155  0.0
238876.70000000155  0.0
238876.80000000156  0.0
238876.90000000157  0.0
238877.00000000157  0.0
238877.10000000158  0.0
238877.20000000158  0.0
238877.3000000016  0.0
238877.4000000016  0.0
238877.5000000016  0.0
238877.6000000016  0.0
238877.7000000016  0.0
238877.80000000162  0.0
238877.90000000162  0.0
238878.00000000163  0.0
238878.10000000164  0.0
238878.20000000164  0.0
238878.30000000165  0.0
238878.40000000165  0.0
238878.50000000166  0.0
238878.60000000166  0.0
238878.70000000167  0.0
238878.80000000168  0.0
238878.90000000168  0.0
238879.0000000017  0.0
238879.1000000017  0.0
238879.2000000017  0.0
238879.3000000017  0.0
238879.4000000017  0.0
238879.50000000172  0.0
238879.60000000172  0.0
238879.70000000173  0.0
238879.80000000173  0.0
238879.90000000174  0.0
238880.00000000175  0.0
238880.10000000175  0.0
238880.20000000176  0.0
238880.30000000176  0.0
238880.40000000177  0.0
238880.50000000178  0.0
238880.60000000178  0.0
238880.7000000018  0.0
238880.8000000018  0.0
238880.9000000018  0.0
238881.0000000018  0.0
238881.1000000018  0.0
238881.20000000182  0.0
238881.30000000182  0.0
238881.40000000183  0.0
238881.50000000183  0.0
238881.60000000184  0.0
238881.70000000185  0.0
238881.80000000185  0.0
238881.90000000186  0.0
238882.00000000186  0.0
238882.10000000187  0.0
238882.20000000187  0.0
238882.30000000188  0.0
238882.4000000019  0.0
238882.5000000019  0.0
238882.6000000019  0.0
238882.7000000019  0.0
238882.8000000019  0.0
238882.90000000192  0.0
238883.00000000192  0.0
238883.10000000193  0.0
238883.20000000193  0.0
238883.30000000194  0.0
238883.40000000194  0.0
238883.50000000195  0.0
238883.60000000196  0.0
238883.70000000196  0.0
238883.80000000197  0.0
238883.90000000197  0.0
238884.00000000198  0.0
238884.10000000198  0.0
238884.200000002  0.0
238884.300000002  0.0
238884.400000002  0.0
238884.500000002  0.0
238884.600000002  0.0
238884.70000000202  0.0
238884.80000000203  0.0
238884.90000000203  0.0
238885.00000000204  0.0
238885.10000000204  0.0
238885.20000000205  0.0
238885.30000000205  0.0
238885.40000000206  0.0
238885.50000000207  0.0
238885.60000000207  0.0
238885.70000000208  0.0
238885.80000000208  0.0
238885.9000000021  0.0
238886.0000000021  0.0
238886.1000000021  0.0
238886.2000000021  0.0
238886.3000000021  0.0
238886.40000000212  0.0
238886.50000000212  0.0
238886.60000000213  0.0
238886.70000000214  0.0
238886.80000000214  0.0
238886.90000000215  0.0
238887.00000000215  0.0
238887.10000000216  0.0
238887.20000000217  0.0
238887.30000000217  0.0
238887.40000000218  0.0
238887.50000000218  0.0
238887.6000000022  0.0
238887.7000000022  0.0
238887.8000000022  0.0
238887.9000000022  0.0
238888.0000000022  0.0
238888.10000000222  0.0
238888.20000000222  0.0
238888.30000000223  0.0
238888.40000000224  0.0
238888.50000000224  0.0
238888.60000000225  0.0
238888.70000000225  0.0
238888.80000000226  0.0
238888.90000000226  0.0
238889.00000000227  0.0
238889.10000000228  0.0
238889.20000000228  0.0
238889.3000000023  0.0
238889.4000000023  0.0
238889.5000000023  0.0
238889.6000000023  0.0
238889.7000000023  0.0
238889.80000000232  0.0
238889.90000000232  0.0
238890.00000000233  0.0
238890.10000000233  0.0
238890.20000000234  0.0
238890.30000000235  0.0
238890.40000000235  0.0
238890.50000000236  0.0
238890.60000000236  0.0
238890.70000000237  0.0
238890.80000000237  0.0
238890.90000000238  0.0
238891.0000000024  0.0
238891.1000000024  0.0
238891.2000000024  0.0
238891.3000000024  0.0
238891.4000000024  0.0
238891.50000000242  0.0
238891.60000000242  0.0
238891.70000000243  0.0
238891.80000000243  0.0
238891.90000000244  0.0
238892.00000000244  0.0
238892.10000000245  0.0
238892.20000000246  4.6074255521944e-15
238892.30000000246  4.6074255521944e-15
238892.40000000247  4.6074255521944e-15
238892.50000000247  9.2148511043888e-15
238892.60000000248  1.3822276656583199e-14
238892.7000000025  2.300937218535637e-14
238892.8000000025  3.683164884193957e-14
238892.9000000025  5.523359547510154e-14
238893.0000000025  8.285039321265231e-14
238893.1000000025  1.2428946760678627e-13
238893.20000000251  1.887379141862766e-13
238893.30000000252  2.900180096077065e-13
238893.40000000253  4.3731684939984916e-13
238893.50000000253  6.536715613236765e-13
238893.60000000254  9.80493464197707e-13
238893.70000000254  1.4592216324160745e-12
238893.80000000255  2.1681267892148526e-12
238893.90000000256  3.21306869999205e-12
238894.00000000256  4.7459536300920036e-12
238894.10000000257  6.9785288658863465e-12
238894.20000000257  1.023303664027253e-11
238894.30000000258  1.4946793802650404e-11
238894.40000000258  2.1759621882111446e-11
238894.5000000026  3.156458427966413e-11
238894.6000000026  4.5632192469113875e-11
238894.7000000026  6.573469546466981e-11
238894.8000000026  9.436706971399644e-11
238894.9000000026  1.349955980334272e-10
238895.00000000262  1.9244453253186578e-10
238895.10000000263  2.733840376301089e-10
238895.20000000263  3.870115061754831e-10
238895.30000000264  5.459537821828064e-10
238895.40000000264  7.674916535638232e-10
238895.50000000265  1.0751617651738599e-09
238895.60000000265  1.5009157250389649e-09
238895.70000000266  2.087960110364051e-09
238895.80000000267  2.8944899810312563e-09
238895.90000000267  3.99856825428202e-09
238896.00000000268  5.5045290547894865e-09
238896.10000000268  7.551249792125958e-09
238896.2000000027  1.0322877025403798e-08
238896.3000000027  1.4062608771903129e-08
238896.4000000027  1.9090357517015377e-08
238896.5000000027  2.582529284866908e-08
238896.6000000027  3.481446039788061e-08
238896.70000000272  4.676890424937241e-08
238896.80000000272  6.260915735856187e-08
238896.90000000273  8.352213889950555e-08
238897.00000000274  1.1103208735763204e-07
238897.10000000274  1.4708843404376282e-07
238897.20000000275  1.9417425833889723e-07
238897.30000000275  2.554394168963192e-07
238897.40000000276  3.348631022748183e-07
238897.50000000276  4.3745139213791084e-07
238897.60000000277  5.69476007600267e-07
238897.70000000278  7.387613753240263e-07
238897.80000000278  9.550278875225526e-07
238897.9000000028  1.2303000749003257e-06
238898.0000000028  1.5793892254589714e-06
238898.1000000028  2.020460729307283e-06
238898.2000000028  2.5756970363499665e-06
238898.3000000028  3.272067588183658e-06
238898.40000000282  4.142217278929605e-06
238898.50000000282  5.2254850276545195e-06
238898.60000000283  6.569063524197727e-06
238898.70000000283  8.229310267476864e-06
238898.80000000284  1.0273218693235275e-05
238898.90000000285  1.278005581409336e-05
238899.00000000285  1.584317021086079e-05
238899.10000000286  1.9571970173604125e-05
238899.20000000286  2.4094067440305622e-05
238899.30000000287  2.9557576078892422e-05
238899.40000000288  3.61335497023052e-05
238899.50000000288  4.40185321444464e-05
238899.6000000029  5.3437188412081005e-05
238899.7000000029  6.464497279290438e-05
238899.8000000029  7.793078063339509e-05
238899.9000000029  9.361951928402168e-05
238900.0000000029  0.00011207452210815205
238900.10000000292  0.00013369971797991265
238900.20000000292  0.00015894145740300014
238900.30000000293  0.00018828988595145923
238900.40000000293  0.0002222797464477566
238900.50000000294  0.00026149048399196073
238900.60000000295  0.00030654552293349346
238900.70000000295  0.00035811058296086884
238900.80000000296  0.0004168909033815116
238900.90000000296  0.0004836272505184258
238901.00000000297  0.0005590905941893209
238901.10000000297  0.0006440753551374967
238901.20000000298  0.0007393911471645642
238901.300000003  0.0008458529649470747
238901.400000003  0.0009642698018489104
238901.500000003  0.0010954317206310349
238901.600000003  0.0012400954436325717
238901.700000003  0.0013989685770209592
238901.80000000302  0.0015726926349953207
238901.90000000302  0.001761825083135632
238902.00000000303  0.001966820673891423
238902.10000000303  0.0021880124000143997
238902.20000000304  0.0024255924411043517
238902.30000000304  0.0026795935231368195
238902.40000000305  0.0029498711479104267
238902.50000000306  0.0032360871776134226
238902.60000000306  0.0035376952763887526
238902.70000000307  0.0038539287149178536
238902.80000000307  0.004183791033488704
238902.90000000308  0.004526050033214074
238903.00000000309  0.004879235523207626
238903.1000000031  0.005241641193289404
238903.2000000031  0.005611330908235346
238903.3000000031  0.005986149631126009
238903.4000000031  0.00636373908232829
238903.5000000031  0.006741558128762121
238903.60000000312  0.007116907778897341
238903.70000000313  0.007486960535019016
238903.80000000313  0.007848793730005577
238903.90000000314  0.008199426354722428
238904.00000000314  0.00853585876852353
238904.10000000315  0.008855114583089185
238904.20000000315  0.009154283922918283
238904.30000000316  0.009430567197643708
238904.40000000317  0.009681318474814932
238904.50000000317  0.00990408751959515
238904.60000000318  0.01009665957088235
238904.70000000318  0.010257091953057684
238904.8000000032  0.010383746678286926
238904.9000000032  0.010475318274880518
238905.0000000032  0.010530856181042852
238905.1000000032  0.010549781167158628
238905.2000000032  0.010531895389993717
238905.30000000322  0.010477385834934155
238905.40000000322  0.010386821062565804
238905.50000000323  0.010261141338665292
238905.60000000324  0.01010164238713468
238905.70000000324  0.00990995315820109
238905.80000000325  0.009688008145099763
238905.90000000325  0.009438014906617331
238906.00000000326  0.009162417557336267
238906.10000000327  0.008863857068764441
238906.20000000327  0.008545129280910696
238906.30000000328  0.00820914155429503
238906.40000000328  0.00785886899625765
238906.5000000033  0.007497311173852078
238906.6000000033  0.007127450179806982
238906.7000000033  0.006752210850431539
238906.8000000033  0.006374423847879757
238906.9000000033  0.005996792217430019
238907.00000000332  0.005621861916929899
